1,2,3,4,5,6,7,8,9,10
-0.02348916717204694,0.1980780162814494,-0.01745291211308934,-0.006613111733025479,-0.10190860601735365,-0.03771093019742768,0.029349472231068135,-0.05267019642264083,0.07761516537922451,0.07599595467353092
-0.07812415060288837,0.17225594202573594,0.034426473914478686,0.0018474636876077552,-0.12084747489098753,-0.06837670570377137,0.02661827665000616,-0.05633356005874581,0.12565782327102942,0.08986314036987407
-0.12921345376837878,0.13805603808572728,0.07748058051880093,0.001474912677229221,-0.13130438036187753,-0.08777249052400544,0.009210661592549933,-0.059509377477350814,0.15369564882200734,0.09181601126359472
-0.1668254940058952,0.10292017160208021,0.09831813579655975,-0.0082694750241473,-0.1300154713924893,-0.09657116972757629,-0.027020519140494848,-0.06661522918307909,0.15736539317902518,0.0700160439075782
-0.18360966911848722,0.07252202122158688,0.08722058323866147,-0.026294911685776103,-0.11490016987009083,-0.09632374876970043,-0.039687043946000616,-0.06443165585500782,0.13894255273776918,0.021894497569979694
-0.17696089973562829,0.04951673898345522,0.04148107459627518,-0.05060565544365851,-0.08607208380280534,-0.08785366990724885,-0.061372842995944525,-0.0617096148611819,0.10745274917983935,-0.0482293968172533
-0.1497746288871503,0.03332503101357035,-0.032868591963903,-0.07890676227453296,-0.046517211259305274,-0.07044234521605132,-0.0886628395974176,-0.050747205245796796,0.07625600149441256,-0.1266444301329364
-0.10947280141996048,0.020899565827277235,-0.12160254624351023,-0.10888407866340478,-0.002132085669891707,-0.042266180153256304,-0.1008212578458282,-0.03674495886358334,0.05866319159203933,-0.1948861246889773
-0.0656049262570567,0.008154045982457565,-0.20512316538308537,-0.13817864259064183,0.04157733968572505,-0.002035632430010645,-0.08530545927662651,-0.015769219896062052,0.06316756749379984,-0.22979700401728193
-0.026851851829055036,-0.008421836308472846,-0.26296478275247304,-0.16420535727434915,0.06861420674792026,0.048828728843492666,-0.03964089347372423,-0.001129609892524707,0.09024233284069642,-0.2328784393921668
0.0015523744076321982,-0.030442036396679823,-0.2789534570117085,-0.18399335255950217,0.07965962935491057,0.10457891321253522,-0.0056058147997245875,0.0051803615071610715,0.1320779732184358,-0.20277895565422763
0.019146562147909104,-0.056942976616081706,-0.2457577794700423,-0.19423456872490455,0.06918487243484088,0.15513739670860088,0.02016499110798032,0.0034150634404144604,0.17537452979850374,-0.14570345478394015
0.02991400064495277,-0.08447537547388143,-0.16755854753746496,-0.1917276740129021,0.03914537838703094,0.18818100583251476,0.03683800496217538,-0.0013766698126267108,0.20601735429561382,-0.08175115538581737
0.04042165153831511,-0.10789728563177496,-0.05988450219952734,-0.1742896430102029,-0.003810508096455513,0.19286098309730426,0.043195169516406125,-0.011162881879355454,0.21377601662864026,-0.023289703193527356
0.0570298883361329,-0.12164644190969492,0.053667183009691206,-0.1419252969506069,-0.05001731973420633,0.16386533203073853,0.033926761001674806,-0.0242076670504349,0.19532459981058672,0.021467356583345334
0.08310166047609811,-0.12118328804047981,0.14720974459372332,-0.09774963274624929,-0.08923700454150225,0.10418395171487022,0.015264792603264132,-0.03970595239906979,0.15469644368429059,0.03661158247393679
0.11720687281846272,-0.10426454541997496,0.19936366153474633,-0.04810466544199472,-0.11307996511002008,0.025311997530549784,-0.021304403412080657,-0.06248066994344698,0.10132714842673231,0.03686303556843793
0.15304657859063978,-0.07173217454763299,0.19908386814402337,-0.0016073822031146222,-0.116765904147869,-0.05540510097572155,-0.06393828816700195,-0.0913149731440197,0.046686884607159466,0.016191010446488168
0.1812360517019405,-0.027594519099152212,0.1486606009789022,0.032650872638069546,-0.09993018876606516,-0.11946669105606976,-0.10216329339018583,-0.11904550326623997,0.0008748439596686042,-0.001899186308829722
0.19238363518456328,0.02166107552538769,0.06285395798968998,0.04715733104852548,-0.06648272109114652,-0.1523847013177369,-0.12141775087514385,-0.1386643860987302,-0.02965647128689803,-0.0144841701956278
0.18039974272255818,0.06837454873226811,-0.03563838961710377,0.03762890287155317,-0.023677162200868903,-0.14765800331135873,-0.12908785750698062,-0.14871854857400665,-0.0427355314335519,-0.01591722008491851
0.1449084312092806,0.10529163317628666,-0.12297354196778042,0.003860032788307088,0.019413348546190055,-0.10838957468653829,-0.09409440768044128,-0.13239063399296377,-0.03972198178223934,-0.0017040150366787556
0.09200288296668244,0.12697329641886823,-0.18106230510486193,-0.050263534313651236,0.053796115176577224,-0.046208724841324385,-0.054179354271835845,-0.09989566404931635,-0.024128091670094855,0.02004994278597847
0.033147667483522436,0.13067457493156912,-0.20238535512511427,-0.11736153082538818,0.07254221813038547,0.02202152868383016,-0.01822748879356099,-0.05521728115539143,-0.0003899704391428939,0.042805497512865054
-0.017470522293455054,0.1165710175877416,-0.19123447171621055,-0.1875253199015602,0.0724362545356789,0.07866571282552083,0.017216339264960502,-0.02123052553211489,0.02680214183321186,0.0574165813357825
-0.04649565501298718,0.08748010767752097,-0.1611099985066266,-0.24956963345266778,0.054792718237256226,0.10968327600717144,0.060191041561119915,0.0031107062702091263,0.05267819901998593,0.052079962035682735
-0.04498091375794267,0.048348927948462815,-0.1293379122506079,-0.29263186302175537,0.02503823165693668,0.10776962322515853,0.08579934595996429,0.01451030481140541,0.07241330321713449,0.02205221592389341
-0.011016699292425445,0.0056783409289254926,-0.11089066528298566,-0.3081341104816955,-0.008989470723249265,0.07356862805230986,0.10100896989798093,-0.003507518799855768,0.08132733671488303,-0.02034612238954058
0.04942107269676954,-0.03317399705551222,-0.11352719411355816,-0.2918321996174634,-0.039566025307705525,0.014870597775175994,0.13520604054907173,-0.042721829341196484,0.07536533046210328,-0.07494802755657845
0.12377232776345612,-0.06100709581353122,-0.13571179761356064,-0.24530072250544885,-0.061543205168720874,-0.055710244822240025,0.1509949592450158,-0.09940292164775993,0.05175620739114086,-0.13157399534927838
0.19605863601840662,-0.07217883161736252,-0.1676981824597245,-0.17607819742389433,-0.07377407006590185,-0.12377404133471996,0.142954361439538,-0.1684032817236425,0.009682810496360989,-0.17263409432859647
0.2510255479148021,-0.06411933485768363,-0.19513598244941763,-0.0960776025823909,-0.07887684122211014,-0.1761154808440741,0.12283980833857283,-0.22579003063025194,-0.04914114183962839,-0.19734908627723458
0.27804951793905736,-0.038357412021927086,-0.20387613983259872,-0.01863615561950046,-0.08139647121516648,-0.20312051627589892,0.08893084115854764,-0.25657219572984197,-0.1200251715273117,-0.19973584256671464
0.2736590696304006,-0.00046985378585101583,-0.1844315492966148,0.04473967605239482,-0.08514045928238985,-0.20033087422273224,0.05893606819019245,-0.25822514369569843,-0.19507379293949625,-0.18138302712816845
0.24195005567450745,0.04122061515958142,-0.13479355915862667,0.08673705905866906,-0.0908756935045032,-0.16909798807843598,0.008599153188219105,-0.2335100524326678,-0.26095785767558577,-0.14840884860186998
0.19285229498321402,0.07779010088578243,-0.060922521606669826,0.10499444159355614,-0.09545746530000693,-0.11627921647370675,-0.05150626126456469,-0.1933566505848657,-0.3126066739259143,-0.10724389113703915
0.13891057807117935,0.10191232276980838,0.025000058178292095,0.10133383147471457,-0.09284644144035713,-0.05291647674946674,-0.11743961680588991,-0.15532571716783136,-0.3305194836083907,-0.0749575496601514
0.09170268151417174,0.10935059240672937,0.10784478541433531,0.08018203195191846,-0.07663113457372754,0.00804930753328034,-0.16574106584504938,-0.13762455037815166,-0.3089090805409012,-0.05452389394016019
0.05902830952484667,0.0993531562640419,0.1733328187096467,0.0470491904541377,-0.040539299357551906,0.054671002420969755,-0.1898037977217375,-0.14643787455488844,-0.24634688378159803,-0.05332040929008164
0.04357784769633877,0.07405379178857158,0.21138875620393605,0.00760237258876342,0.0067586619009751495,0.07880218250913357,-0.1869279488215193,-0.18517684387589614,-0.15008899380399926,-0.06667373234383331
0.043165512350910575,0.03735560814596725,0.21828112667199134,-0.03266265034576624,0.06602205626432454,0.0780114217799188,-0.16889929698750475,-0.23739415242324663,-0.03536369812811614,-0.09045070334380823
0.05209867565143267,-0.006126578097125651,0.19708351583748174,-0.06852788158704168,0.12380980351005504,0.05602756255145434,-0.12640543505657806,-0.2724827305210698,0.0780985027470564,-0.11706944007098599
0.06305421532088971,-0.05169358790518449,0.15640210001196714,-0.09534428770947967,0.16784119079969415,0.021606085264815483,-0.06689115757478166,-0.28263162753868565,0.171199373233901,-0.1427402476918089
0.06894089910118473,-0.09475113389581198,0.10780561944050893,-0.10965969177258203,0.18786538822476725,-0.013825449403409648,-0.0005944486763135408,-0.26936933755728454,0.23037827727828528,-0.15811133268681615
0.06447052679181349,-0.1308486075557465,0.06278151471028834,-0.11001347503027627,0.17848135920369423,-0.03909483946555063,0.09182865429904505,-0.21440119093496732,0.2505299232848247,-0.15487489647326982
0.047332129549915614,-0.1559038773781451,0.030123555311320206,-0.09752985599817914,0.140510809761606,-0.046054345632092535,0.16076752303500227,-0.11603224278075608,0.23511065529529196,-0.14347795703170702
0.018872248635959096,-0.16674391049777687,0.014393073452111714,-0.07594795454650605,0.08050485316322706,-0.03152829827177078,0.22287472543222347,-0.00257527991989062,0.19379894868757236,-0.11547024452147792
-0.015900154102150447,-0.1618057950148323,0.015644417360378346,-0.05092180256544948,0.008662167742547976,0.0020346379110527933,0.2552408463973004,0.10594946609723073,0.13893451625738387,-0.09042381022859276
-0.04919022933476311,-0.1416979725492583,0.030193261473033205,-0.028715882597205464,-0.06397129984218972,0.04736822930124746,0.26466406363520484,0.20058540137270056,0.08215609708953416,-0.06293516149633845
-0.07222123766939768,-0.10937522608344753,0.051996735120310895,-0.01467153594269943,-0.12795342459440556,0.0944355459400428,0.24548057245922753,0.25788611730325856,0.0322291271819859,-0.04266773139477949
-0.07766557850796024,-0.06980956449516708,0.07422843475711514,-0.011905821171446637,-0.17677966334247697,0.1331539841749521,0.20863564600870396,0.25692611300642426,-0.005670744157317531,-0.027794121103294274
-0.06202900399188434,-0.029135886933089397,0.09075865569922345,-0.02060248068502538,-0.20695817856608079,0.15603989034059904,0.16205852550081312,0.20772692464237774,-0.02956819334448615,-0.009997429873606968
-0.027149584286070907,0.006640336852586408,0.0973520184763397,-0.03804214093507288,-0.21727803929553435,0.1600212936928803,0.10752785817890415,0.11885136565146415,-0.039790115529140815,0.012028934789699519
0.019840355066066632,0.03309196009028303,0.0924234945780898,-0.059303342197224315,-0.20795917454823254,0.14689391550696929,0.08844689879581431,0.01369396461660437,-0.038044667315871285,0.0314603254343319
0.06825299812216998,0.048488819414928185,0.07721050811572909,-0.07841668504320502,-0.1801913508324804,0.12230180522288779,0.0597683093278132,-0.0748273499896786,-0.026708342723194806,0.047481364898075036
0.1068538381892964,0.05408222636310597,0.0553023414643909,-0.08969486669281952,-0.13617610271896352,0.09358399695199676,0.02902660324540974,-0.13668346838481288,-0.008372905509771912,0.05783714684133605
0.12723651080637963,0.053342261614501264,0.031627016567270745,-0.08898434582796967,-0.07944843496441169,0.06717637177766994,0.0047130078028045,-0.15762477834572425,0.014340517495775109,0.06243527648311376
0.1264771424143848,0.05042088711294952,0.011165151711087793,-0.0746467207788745,-0.015107338497190731,0.046383085848258086,-0.007755284141409464,-0.1391408083872367,0.03870484640779225,0.062403681288995365
0.10815495347148406,0.04850977909679611,-0.0022437913764856636,-0.04811756291888621,0.050386358900139004,0.030214801389365362,-0.01354597893197879,-0.08739469438443317,0.06165237019181143,0.056275228232808054
0.08130966475688156,0.048824761190268004,-0.006671740321926578,-0.013889845098903657,0.11002237525415941,0.01367347953448685,-0.02155747787940624,-0.0052868770027531195,0.07965005171334569,0.04717693055819061
0.05757296235177027,0.05064513451167687,-0.002284929252269969,0.02120993489196264,0.16003023939747157,-0.010564965072338834,-0.03550627832792193,0.06982927133199425,0.08899781246199243,0.04423806697583282
0.04736486726288891,0.05233339588601061,0.008993569296801536,0.049458056032190674,0.18867344468650535,-0.0495297490255109,-0.05438874218691553,0.12396371186011582,0.0866438162253785,0.03942444581948694
0.05643168067142949,0.05280387765407082,0.024103179106548123,0.06414316843747872,0.2019924808469774,-0.10713450387478751,-0.040288333043467094,0.15442711763689085,0.07122915857974178,0.04208515820247956
0.08390942518405785,0.05269936695737995,0.03949317577651879,0.06144601950874496,0.1986196557250945,-0.1819928323132996,-0.02953771621332124,0.1498247898462024,0.04383020961982816,0.046885039350876505
0.12253054955244676,0.054658309949684604,0.05167431340449928,0.04165977459259635,0.18116979221464147,-0.26661627235938173,-0.013113938597310974,0.11296818744227108,0.007979814149019198,0.05643042248921628
0.16081597214127635,0.062461128090551966,0.057707386243391987,0.009254147540586554,0.15228617828742402,-0.3484479324315999,0.03045786284352164,0.048622789716088,-0.031055090328083425,0.07425676012321537
0.18646053476043367,0.0793695409914784,0.055712770067919956,-0.028323793865794804,0.11372437068103014,-0.4126799885707024,0.0696833286658943,-0.03348349354762213,-0.06738627815485095,0.08687694984742973
0.18984655564699102,0.10638585288995103,0.04539291964134517,-0.0627290593243535,0.0665369786513645,-0.44616924144893205,0.10371280865570663,-0.12059562299676088,-0.09556608604584779,0.1007653419732192
0.16671475624098525,0.14123715900695719,0.028400546956880816,-0.08694768019099493,0.012269497628600426,-0.44123541406675904,0.12678884607137145,-0.19053867604868344,-0.1113610505254035,0.10856009472586078
0.11935832117627404,0.1785585513701089,0.008287292105503559,-0.09691993960112237,-0.04551201877370866,-0.39800729305059007,0.13551913017072104,-0.23179540483607297,-0.11226484034925335,0.09865417023323311
0.05614359879135406,0.2111867903558498,-0.010167567490199142,-0.0920961253934378,-0.10029866315422341,-0.32444058234810613,0.12731065029031136,-0.23169247254769193,-0.09787279897105948,0.07681310685780444
-0.010408534465779572,0.232012332829475,-0.022201313481764656,-0.07490131915613717,-0.1430499057211171,-0.23154828656731982,0.10684164584356846,-0.20693529551618883,-0.07013534258074089,0.04224228375150636
-0.0664242129834087,0.23570791552419038,-0.024502040177760226,-0.049460123316862635,-0.1640900409871605,-0.13742914801115536,0.10422084486085588,-0.16147852771761198,-0.033351683102288955,-0.004227445115784408
-0.09968181207361781,0.21984315807736712,-0.016226912569195586,-0.020112403565255732,-0.15598843354670486,-0.06320915693659908,0.08732126056469228,-0.10856090109767992,0.006283170845053804,-0.06407989988267174
-0.1022278419927087,0.18521996965441928,0.0009118193894786648,0.00978303397335236,-0.11648616146805628,-0.006405895648512815,0.06997331653399247,-0.06157136108472418,0.04166244951580432,-0.12333809243192789
-0.07218914893990867,0.13553469476144475,0.023577903085333037,0.03843845503973211,-0.050444001456028745,0.0238342798484835,0.05759332425836254,-0.035815775001910646,0.06617230876216788,-0.17268415992134328
-0.014492502596626922,0.076601921823539,0.04829405522595259,0.06551888627513816,0.029981255085707408,0.02852789379953676,0.057708977350885836,-0.03330977654436344,0.07521063954953068,-0.20151916849841187
0.05974178254374244,0.015371920728897285,0.0726966173317059,0.09139966775523685,0.1072602518380373,0.012702540989938178,0.06767642527149702,-0.04976495257417809,0.06739646243971241,-0.2056870045707358
0.13524547929095962,-0.0410989696769118,0.09840558081679544,0.11604655841056388,0.16224468529297018,-0.016192561542536486,0.07969457960415259,-0.07528529298129581,0.045068635006680874,-0.17122154581633026
0.19588606324728702,-0.08663466553188556,0.11789086389912755,0.13792775219694123,0.1788929904643629,-0.047255427917088505,0.11003697128065013,-0.10252379898850592,0.013848444128430813,-0.11526806090909684
0.22851588716002727,-0.11680258468075051,0.13839440105654327,0.15347582543798402,0.1487143298358437,-0.07737795886381475,0.11638197690798435,-0.12489408146858383,-0.018689192592570843,-0.042539714075365165
0.22631406233957307,-0.1295263071707404,0.15619167205966686,0.1575399851197143,0.07610283721427043,-0.09730115273343035,0.09661665249050062,-0.13470855525946582,-0.04493096118033144,0.03222695621324422
0.19050833530022895,-0.12529101839293472,0.17154265693695817,0.14492859297931407,-0.033910034774557236,-0.10496999121747758,0.052181879207661756,-0.13662651441768406,-0.059244691067305726,0.09816096010026693
0.12983182091246268,-0.10686726322138577,0.17419369415406574,0.11264105350052886,-0.15316968013982077,-0.09363758260865772,-0.006953824073911839,-0.12454175142965432,-0.05954321061438451,0.13967882169665755
0.05789200556549636,-0.07865748980720225,0.1691528690031553,0.061966912752810646,-0.2600702874070076,-0.06713522059135713,-0.07352873942252149,-0.11184970802813435,-0.047876297120538897,0.14995717121503993
-0.010592688470245358,-0.045900760572154364,0.15493409257924604,-0.0004916081413713836,-0.33278947226866573,-0.029645578175672847,-0.12652676864752405,-0.09869512805264494,-0.029764810502012046,0.1315144605429708
-0.06338309355097241,-0.013933211540296926,0.12402443118731965,-0.06355282830577734,-0.35717601939458904,0.012692592659217057,-0.13820938295498925,-0.08251447459133131,-0.012419275207449435,0.08631929449608436
-0.08817980536599174,0.012449255621123841,0.08562398236282713,-0.1140303574810422,-0.3303559459892785,0.05325833179839782,-0.119286820472458,-0.07416989198684863,-0.0024466760729699904,0.03083887321461069
-0.07838341282774205,0.029570681443057925,0.04075580983262314,-0.1404912816913349,-0.2590827523490884,0.08652383780812789,-0.09937147067747289,-0.06732738898678736,-0.0038657822174312305,-0.01935183811148793
-0.059852004318762704,0.0353778265773362,-0.005470016426610852,-0.13692939097438891,-0.17006132731685605,0.10914577992115594,-0.07712372466594179,-0.0572200342234401,-0.0170732285122267,-0.062308403659249764
-0.03316590960290218,0.029709011474558893,-0.04714023665286156,-0.10493145929356677,-0.08014398228966996,0.12026814329877633,-0.04310627230537635,-0.03296117106006964,-0.0389621596797316,-0.08299701947391074
-0.0063068742207666615,0.014132183964118788,-0.07870418768983262,-0.053401860142075125,-0.014998093350190037,0.12115090140975011,-0.001759769430243736,0.01152798808292472,-0.06397947041932188,-0.08439014632917818
0.0158307471063823,-0.008692309246732569,-0.09612492117350117,0.004116914386682847,0.009554725222564871,0.11447278931442244,0.058191247960387375,0.059519614837143825,-0.08570132847614993,-0.06754851707415367
0.019127051305660295,-0.03590429135211086,-0.09764944564958705,0.05352351916110219,-0.010712979968179739,0.10359338268898192,0.09343049535856732,0.11297997786555806,-0.09849426456839624,-0.04507418762760499
0.008287526133975667,-0.06518603073563789,-0.08403516570069203,0.084175919515067,-0.06733589910396566,0.09186373322597309,0.10361994429142386,0.14963848551295042,-0.09890525013489669,-0.018988571893050456
-0.006864730387911824,-0.09498246503918016,-0.05829549484978133,0.09158567579062851,-0.14165561523891484,0.08196745563926945,0.10149607466119605,0.18357544314462756,-0.0865210677687823,0.002781598582198534
-0.034507651893299573,-0.12407578262824588,-0.025145399392167006,0.07812527523776673,-0.21034886856443566,0.07532608221743298,0.06550700708888743,0.1944707094248692,-0.06414178822221381,0.015915950178873185
-0.05859726414516581,-0.15073235243505242,0.009682812810770854,0.05173550262441243,-0.25239261197804197,0.07173254756309341,0.07913493895843675,0.197992185381326,-0.037225703448470475,0.028130952122747858
-0.06849850258136084,-0.17191373963400186,0.04017008013486157,0.023131806731231254,-0.2552638516031407,0.069449144317533,0.06800288149148342,0.1849718299723118,-0.012680881428680462,0.03195576527786587
-0.06563637419085168,-0.18310865105496976,0.06078376773486457,0.002351776006274373,-0.2183163107883763,0.06590590415659475,0.005071247132090201,0.15407844550255057,0.002796350190189114,0.03178100645972008
-0.048462156551315645,-0.17913678524172613,0.06729079158731771,-0.004351520530891088,-0.15224473560121568,0.0588478263620338,-0.0731635534950868,0.11416710737762018,0.004503975431047809,0.03321045293968211
-0.026923180258761288,-0.15585706376622294,0.05752924754752318,0.0036634839791329244,-0.07499782384544401,0.04745899798015694,-0.13973388920564883,0.07014212129205827,-0.00880432434396747,0.0410361092191063
0.01011649813260726,-0.11224586215694352,0.031969336970968744,0.02146971599138626,-0.0057908793326566,0.032893278461507185,-0.18004983143028347,0.03187941918746422,-0.03424920737983839,0.05540772866198976
0.04367733497917621,-0.05199976448513011,-0.006128363097840548,0.04050326259975382,0.040578806025668226,0.017906807788336417,-0.18521468215778644,-0.007824135695386938,-0.06529694413369463,0.07062764444095998
0.07302167232715834,0.01617220060144906,-0.05108684056696429,0.051751455371913904,0.05727593650826923,0.005780700445136608,-0.15819017023510867,-0.0446973634400497,-0.09342348761478002,0.07668317706290187
0.10222603862247824,0.08001440699348462,-0.09572571060735166,0.04905921542785456,0.04600836984531978,-0.0008956542308816641,-0.09939791070760699,-0.07444167332397233,-0.1105973765719292,0.07513199170799201
0.12267955099683245,0.12673499538925673,-0.13267855092899533,0.03130359588086837,0.014990908660464543,-0.0010035543889113212,-0.018477037303220964,-0.09614015625416737,-0.11180908875670942,0.06205105938185813
0.13424545055125972,0.14666271491518407,-0.15339132644001938,0.0026019941273171445,-0.02452161067844227,0.005002188529038584,0.07943537886988881,-0.11419043314667723,-0.09672321101250587,0.038728780304000274
0.13095956112879578,0.13625372060835092,-0.16201414246727844,-0.029459325605768968,-0.06171051748574104,0.015503187946795935,0.1736652784929972,-0.12471473722485255,-0.06978758766224011,0.010945972551525452
0.11195554892005637,0.09927116421660019,-0.15126511322875627,-0.05673993100762829,-0.08861384134957416,0.028295597849436468,0.2522994419606263,-0.11918413075228278,-0.038749572937930195,-0.016991183625947634
0.08253111166815816,0.045612077102499655,-0.1273685689546091,-0.07331878291540536,-0.1010974390106846,0.04109072840935781,0.30622740092311695,-0.0977727893597374,-0.012198905965747579,-0.0286544685080644
0.06290880244008856,-0.011824348551948787,-0.0964782250946226,-0.07701915579554992,-0.09861400507128269,0.05189709449796783,0.35843652261924724,-0.05863896929638192,0.002897558366683977,-0.024902798351955645
0.0011401958659627894,-0.06107116565288501,-0.06532854061925297,-0.06926410344796025,-0.08333855316007775,0.05933703852664547,0.3545405281664059,-0.013193180496846441,0.002846593057328809,-0.010190228884538032
-0.05260535166196137,-0.09440512882423367,-0.03918096617468117,-0.053660081384249776,-0.059275873475003814,0.06288018730307789,0.3174847945455869,0.035508002761643606,-0.012284147254322954,0.011464889946218167
-0.11067498548121416,-0.10990712339596292,-0.02038530267608837,-0.03422851528397953,-0.03166509446067579,0.06287107351616422,0.24880763077588933,0.0875994409242594,-0.039202744194562364,0.03262291831761928
-0.20102116040745208,-0.11085686425540925,-0.00821319364720128,-0.014180218010158422,-0.006617881362467922,0.06024717392119835,0.18019536506417524,0.13324019476636675,-0.07254533047423672,0.048428172086220314
-0.2924216049518972,-0.1034002764327522,-1.3929806552602058e-05,0.004382959152747009,0.00936359904274013,0.056006047161205434,0.11344972047683177,0.160288707238621,-0.10622931976752366,0.047761823795256106
-0.36067193938363956,-0.09358748074778891,0.006925912605598334,0.02010402148353745,0.01035055207487217,0.05065756013406878,0.05024564827455462,0.1459316821459986,-0.13473403930234715,0.022338274933205816
-0.3711685051663348,-0.08505853409961177,0.01375644058963359,0.03198038014941746,-0.007513324439547074,0.04394081504679542,-0.011256970543574196,0.10296293398470308,-0.1541657397972373,-0.015001178437267858
-0.3432586243565277,-0.07826994681680026,0.019427958517437997,0.039486201249694236,-0.04438481754686448,0.03495337657344999,-0.05884328214362507,0.032549222750321224,-0.162999851639343,-0.04271618048177868
-0.26822258718757785,-0.07139756694434894,0.028615434313219675,0.05539783792358332,-0.0957095655200196,0.022619182029246808,-0.04176799052731825,-0.023098525615970443,-0.16237378578659245,-0.0449010526554383
-0.17031049637227166,-0.06228351821943813,0.028124001451154124,0.0672458361736137,-0.15254556943296219,0.006250964656220134,-0.04304491983145091,-0.07937036922900827,-0.15582097028212985,-0.04621207758963938
-0.0739608713824992,-0.05036629718999065,0.010990201460137834,0.07345370014469528,-0.20349941571681018,-0.01405705000155248,-0.05077066511525938,-0.13466579961755598,-0.14843028461284907,-0.03235376146987081
0.008257644836618883,-0.03762121627362823,-0.02078750927807548,0.07737650535195123,-0.2378537854005492,-0.037331454106562,-0.05438225246003214,-0.17423991567773112,-0.14554921374261764,-0.006683360816829587
0.06399758674380174,-0.028067163891088962,-0.054725131822204606,0.08383748290001203,-0.2488362279654518,-0.061834860999948914,-0.061479019222300334,-0.18493104829430382,-0.1512748957039729,0.0211909806576692
0.08774951836624303,-0.026078370602485242,-0.0870510127915184,0.09780636188120742,-0.2357668754688484,-0.0851936045191652,-0.06288765345074823,-0.16749430099531817,-0.16707257876913767,0.043597476427060564
0.0744489548240437,-0.03425347600307412,-0.11213166656478098,0.12614971445421255,-0.20419388164814803,-0.10443183778052374,-0.05563366381352268,-0.12625278067297319,-0.19090564079249278,0.05023214763862716
0.030418058206574453,-0.05176006486802197,-0.12224323140221409,0.15300048193133423,-0.16393360166449772,-0.11606406372806725,-0.0448332715411578,-0.08330081776542089,-0.21720954726143366,0.034972311582926796
-0.03917952975666725,-0.07388868242361463,-0.11284393427223864,0.1700377733913072,-0.12578141605799703,-0.11657561139552519,-0.03185900259451099,-0.03163614389892227,-0.23786008953059096,0.004795289783818779
-0.10211004762238549,-0.09310527189890569,-0.08450448166572948,0.1688919929730546,-0.09814400739749668,-0.10347434058796799,-0.009941529547093507,0.009547173955521064,-0.24401475057633387,-0.03613422278165044
-0.14488956856781943,-0.10132068298956322,-0.04313720625868784,0.14423514961251416,-0.08477605448448185,-0.07665227648952085,0.020745070526163617,0.04631715037234539,-0.22844547738648774,-0.07356177441221089
-0.1660755846465248,-0.09260215655099424,0.0016835971368541333,0.0964889625099728,-0.0842679635623666,-0.03938207453351658,0.054448085295036336,0.05158838606666917,-0.18780218177747693,-0.10676424246724828
-0.1574236639548085,-0.06535930394354098,0.03969977902837842,0.03284245172881999,-0.09120192533455775,0.0017552284896337404,0.0912180361420583,0.0351573781303374,-0.12416271648468837,-0.13372213639792624
-0.12049998682484396,-0.023246264003145348,0.06307487847995374,-0.034017267686230555,-0.09582930829838729,0.03828986038211976,0.12964475963039063,0.011146713895430115,-0.04527495226530374,-0.1499671727286785
-0.06382530771849881,0.025492898899057297,0.06847563354339421,-0.08910357422296772,-0.09890522235195022,0.062282340875136386,0.17866023843481252,0.0005413126360954205,0.03682905517022994,-0.15954498818031893
-0.0016680532791585128,0.07000373650982146,0.05753039312941828,-0.11919492968318893,-0.0859240973150017,0.06891143442826649,0.22342953411692254,-0.0005236965439332384,0.10865451746027563,-0.1697309840054298
0.049849999283721934,0.09955198205994441,0.03579695386431004,-0.1165032415989926,-0.06541982766858544,0.058279459853322856,0.26504951759887574,0.013753013273218873,0.15873683983555092,-0.17591522236039395
0.08091758796417603,0.10627101140444853,0.010892753695192343,-0.08093110783326922,-0.03142666178393122,0.03573840410822101,0.305045121224485,0.05083101968842171,0.18068883542226302,-0.18163044127644767
0.08710186211554145,0.08717634755046295,-0.009452082139544115,-0.020377165034962407,0.00963701104756369,0.0105318712901529,0.33464500278411075,0.09953887129708455,0.17474495816304342,-0.16395216169194862
0.07199019172173184,0.04485551910833991,-0.01644434764792628,0.05094225142055483,0.052359837480371776,-0.0069123539275759704,0.3632300720049043,0.1448622395050599,0.14724482576067613,-0.13026065109747179
0.036211488747847145,-0.013371142690079534,-0.013799228510390012,0.11575035765759668,0.09077256613574684,-0.00826208477305674,0.3519746703500752,0.1655034585994065,0.10828219643112323,-0.09248742981073678
-0.01169511639877269,-0.07747817933039108,0.006608748677910704,0.15781971952982826,0.1192385784231439,0.009891588881885655,0.32078856754819196,0.15078648928241875,0.06847735525854005,-0.03910991707744721
-0.057065409880191216,-0.13716358601582548,0.041975262738969524,0.1660106021228657,0.1332663863651478,0.04464352660534024,0.27545563155875963,0.11010945750688342,0.03612715060278829,0.019338347539174024
-0.09331999481734,-0.18383116980371111,0.07870476729991539,0.13726108078476898,0.13022748070197723,0.0874173556103665,0.23113063224907685,0.04835367793315358,0.01568479503992101,0.06921195468995185
-0.11356491457600887,-0.21167288652607605,0.11573756677655436,0.07770448516712705,0.10995269238435292,0.12656535488108647,0.19139755637013872,-0.014681241718443025,0.007817465919962767,0.10262099249643658
-0.11437733360398694,-0.2179685137393523,0.14129215712046855,0.0014948984574853716,0.07509474755663023,0.15111388589335606,0.1603230023397215,-0.06362598217382912,0.010590953348604082,0.11001420603465593
-0.09639625534333203,-0.2030433945974532,0.14767817109764902,-0.07000786061622498,0.03104104472326536,0.15434857305818445,0.15161058052247342,-0.07853846686502908,0.020977431071829308,0.07966695167915719
-0.06393460217665793,-0.17018792539933528,0.13093484215133214,-0.12543556068493472,-0.014842351969679198,0.13592713725181205,0.13916180684444504,-0.07937956668272385,0.03597239554812792,0.026803870542465497
-0.023623113385706208,-0.12543515084775111,0.0920766661874857,-0.14322490379130792,-0.05466854041538128,0.10175053916931862,0.12618416270732363,-0.06602376433402583,0.05299825019493314,-0.03912006460943469
0.017531755204259286,-0.07682801494988484,0.03699884876190326,-0.12022642350119012,-0.08189815987624198,0.06170946787673895,0.11457588540599276,-0.028077678302164222,0.06971288337792271,-0.10642544043391539
0.05402183171223394,-0.03294597279407045,-0.02494809039686538,-0.06073660466779606,-0.09304833181220142,0.026248309440454518,0.11571386160499823,0.03239312846043,0.08361915257649291,-0.1521509510528005
0.08298437914810658,-0.0008996549508447486,-0.08325369279621964,0.021911608160376957,-0.08861515640850856,0.0030788729760077255,0.11756577336970056,0.0914995319098949,0.09189564868879425,-0.16481711320911674
0.10425349731622668,0.015597099869186767,-0.12872655293999694,0.10856802691585143,-0.07279758024479498,-0.004798741844909239,0.12161136828774394,0.1537159477245189,0.09167811810197295,-0.14535806788985262
0.11942665535354412,0.017378901053115937,-0.15549826229335934,0.17905608579385007,-0.05202659871161963,0.0007836661346503337,0.13428208129841174,0.20185384074722063,0.08073988510720495,-0.10268780714315497
0.13052426876176262,0.009746912071130353,-0.16207384847265827,0.21728592515403056,-0.030304779999189922,0.014698873090142298,0.1462763216571608,0.22540014227013222,0.05829744986313334,-0.04560411523197337
0.13900485370186735,0.0011047719002523642,-0.151199320401232,0.21525629314227507,-0.019692838271195202,0.030919985659845137,0.14835065471399345,0.22164084271725853,0.02560191831107936,-4.471890971511228e-05
0.14561077628966843,0.0006692238443201744,-0.12862775703917012,0.1747839898202095,-0.014168032049365278,0.04476397782545312,0.14337854733031247,0.19956500056073004,-0.013928212753831938,0.023072988629987502
0.15089429177801184,0.015910654156535413,-0.10120793311442812,0.1065047408301171,-0.014699294849405636,0.05417765681600035,0.12004869149270184,0.1664795180575252,-0.055096268169653205,0.015268836782327022
0.1557803261983642,0.05048211650529734,-0.0749575803135595,0.026562544084390377,-0.017965807184043975,0.05973721397099319,0.0980127779858143,0.13714346576765626,-0.091735037522239,-0.022468813076310372
0.1615665219298956,0.10322858105145165,-0.053760827098537675,-0.047913577484960036,-0.020651267441937245,0.06355022328995485,0.05558638422912705,0.09038731303910802,-0.11774823065809212,-0.08794399596281344
0.16927714660621243,0.16846695225722488,-0.039027064260942226,-0.10318372704219646,-0.020959557700527157,0.06762364537086753,0.0084136651811967,0.0388763559393764,-0.1282075648510303,-0.16356891093049014
0.17882228647751797,0.23728981922996897,-0.030223890703187442,-0.13193262778885106,-0.0191894571745809,0.07239717648704216,-0.039570442979151424,-0.011100624012849463,-0.12035715572213065,-0.230378004790946
0.18856961812881626,0.29940733933165753,-0.025869347089210074,-0.13426809704828588,-0.017181382728605414,0.0760215203026277,-0.07399333851671275,-0.05720385273625994,-0.09436658981148122,-0.27523962898536036
0.19566687240278385,0.34507658690313586,-0.02447146658534892,-0.11662961102966551,-0.016963644863842987,0.07465087794921807,-0.08868041063212247,-0.09223393078948655,-0.05363154996679642,-0.2886290447590445
0.197003741632566,0.36683455460118053,-0.025031249143232567,-0.08916182283626073,-0.01683152665642501,0.06365540158758269,-0.08112527796454674,-0.1147961901775614,-0.004421614506410924,-0.2727692472700359
0.19036673161026677,0.3608440857783239,-0.026992552663253896,-0.06249011358850275,-0.023159578912082986,0.039378534734385406,-0.05457726848250952,-0.12362221113448504,0.04521170167973308,-0.23070222707449678
0.17527354482909496,0.3276198348704038,-0.029820653293689908,-0.04487805802223126,-0.025823600758162004,0.000911963772489654,-0.021795623965773163,-0.11573166162419361,0.08712451263641877,-0.17319973153773108
0.15800113395084162,0.27186979293253993,-0.032587842353143055,-0.040469716185465264,-0.02453591692134722,-0.04869571451655822,0.008855217815425828,-0.10313814036728157,0.1149501233164428,-0.10870717820828452
0.12643410360432797,0.2013613981203653,-0.03391225854997655,-0.04887947041043842,-0.01801899415782951,-0.1023382961582525,0.0391701050754898,-0.08664602200615089,0.12553810048990274,-0.04195368313843276
0.09807501491960408,0.12510020286202453,-0.032331029072122625,-0.06600036778800925,-0.007718291123472724,-0.1501642987562166,0.06293987840591296,-0.07627493038461221,0.1194001344106992,0.011966210950800119
0.07030821228030068,0.05144205525559421,-0.02686985544632755,-0.08567906056613335,0.002145963111882324,-0.18211670858566079,0.07330077821710938,-0.07919478455867883,0.0999632952137967,0.05627936350991075
0.04462679624897173,-0.013228086762530391,-0.01743275543553045,-0.10180441542086288,0.005870180138072019,-0.1909296897782443,0.0845929804763412,-0.08475341208932041,0.07196913752031273,0.08687962616450426
0.021932645058867006,-0.06494771831937857,-0.004771424782932302,-0.1102755152044358,-0.0015130870753552043,-0.17448635478062732,0.08528139798750188,-0.08789402807324932,0.0397607764428833,0.1004595805034779
0.010552121891000722,-0.10188361880421515,0.009908439381639374,-0.11027206251626394,-0.021899102537683485,-0.1366408140355439,0.07438001500697873,-0.08364091124842708,0.0062323568763970865,0.09460929232205419
0.02393793130563327,-0.12368025054156385,0.02540939660901179,-0.10437659479327334,-0.05258419477750339,-0.08624559833595136,0.063014337808295,-0.051797655304544964,-0.02712436609601745,0.07911774797480232
0.03939740646740763,-0.13085405742941805,0.04077418848718664,-0.0974464420980005,-0.08628550006128262,-0.034815095943228194,0.0506550502792182,-0.0036558625864079293,-0.059173495194405554,0.04034363182766613
0.04229445711125264,-0.12449849044551772,0.055210524426618245,-0.0945800267727903,-0.11297436292893376,0.006366161364390446,0.032040145540504716,0.06671455322145282,-0.08768229756549471,-0.010259354629162347
0.04295032038812086,-0.10637387163084204,0.06789725726491082,-0.09887125132761432,-0.12312614777994095,0.02888868587668055,0.01704516749759242,0.14851528073269848,-0.10831309792349439,-0.05855178508570093
0.04239053555511796,-0.07926897667432296,0.07795593464709197,-0.10976382306862709,-0.1113451910305011,0.029038578415222976,0.006382587471927548,0.2295937502404028,-0.11479106496697003,-0.09937285172067833
0.052324405179339714,-0.04736379238911372,0.0847276979838626,-0.12265806220018909,-0.0790078166139741,0.008480496406947102,0.0030223000620034452,0.29276896174258904,-0.10048307353519365,-0.11423148981067545
0.05682696745300295,-0.016240047937353792,0.08822883939206735,-0.13001662337876244,-0.03479238684662666,-0.026257098944223702,0.012201102731789938,0.32303997335470547,-0.06092984756025805,-0.10287455960913611
0.05695427782295666,0.007747529779585832,0.08946593611223341,-0.12368727682042215,0.009798026525624025,-0.0653156009506064,0.02768852801501624,0.31641666750056174,0.003703114313339222,-0.07291239847150471
0.05326161615752607,0.018768468763701432,0.0903099557410408,-0.09770663252051033,0.03192249082278527,-0.09769040155754954,0.04845661323610865,0.26331120931421065,0.0874334595522601,-0.02314943627992684
0.04948730696015226,0.013147647710033732,0.09285584872494823,-0.05064427485810966,0.027276706657817246,-0.11360321945494563,0.08587534634601941,0.16964061165506078,0.17925527716694745,0.025981519218810818
0.05645595647134659,-0.009265722037629667,0.0984942029299439,0.013332628984520327,-0.01061382874122388,-0.10660285610463559,0.12001014216657005,0.04138074575920728,0.265743370587015,0.06734727567821229
0.07121314809787709,-0.04456508828916082,0.1071144050898074,0.08508608217723732,-0.07321109627431849,-0.07500401655068681,0.1419418048280597,-0.08697482749084004,0.3344186752341333,0.09661377113709951
0.09601705036601589,-0.08535759452557345,0.11684255160673346,0.15267006627669236,-0.1528408167017577,-0.022397085034379267,0.1546133934965178,-0.20447196650976313,0.3765252275539629,0.11489391765900614
0.1303799755123881,-0.12229194761393108,0.12451300844356697,0.20434532519504148,-0.22148316069823878,0.04286835215700329,0.14784336098213438,-0.28273357317022085,0.38832864061663186,0.11076046667768889
0.168686045266894,-0.1460835828641825,0.12676772669594225,0.23148437872186728,-0.2614141634174423,0.10914607465747066,0.13144337277369794,-0.30650140339967824,0.37089299281572485,0.0965164169379528
0.20624119273477948,-0.14949423481502733,0.12137849544128655,0.2304994969059078,-0.2586386131946604,0.16368130187727772,0.10005767276741351,-0.27998893958802606,0.3289222607254454,0.08326687928266524
0.23052092118524714,-0.12885824899316037,0.10822187413098605,0.20333605775488717,-0.20984575803901287,0.19518750388895076,0.04955699764844391,-0.22140450056822208,0.26934343232020364,0.07697832886118554
0.23483380112616214,-0.08496861655558437,0.08942236971873813,0.15659416728357536,-0.12389713109474251,0.1963394751390776,-0.006550260248226594,-0.13590796986852183,0.20002159674011227,0.0805514210328973
0.21465332148641153,-0.02327245318982357,0.06853104479693403,0.09974276691492609,-0.019734809672146764,0.16559203953279353,-0.05676570906946112,-0.048510410946509215,0.12871109234527806,0.08467401803762323
0.16849451281358505,0.04669059792063607,0.04907665260528119,0.04302813702877311,0.07879140381479595,0.10777285603414073,-0.09259679455510882,0.02886665008854134,0.062262588762417366,0.08660401662843936
0.09830278802017248,0.11273605598933753,0.03316323880457205,-0.004445817987348191,0.14970881331588926,0.033187117427303924,-0.10815342957847834,0.08595144271073067,0.006129628713275436,0.07936517463135422
0.00941752492770625,0.1624001357523891,0.020784903410912794,-0.03622581464124908,0.17925969032209485,-0.044579269713037314,-0.09387740888789331,0.11352604693321086,-0.03582406862856599,0.06041038741643365
-0.08973272611605618,0.18588928571125304,0.010164106695005828,-0.04952111304237524,0.16574505600225534,-0.11157271149111121,-0.05889803704846345,0.11210146601783144,-0.06134201760207659,0.03321790095672022
-0.1881751490375523,0.1787997961107661,-0.001104848097758589,-0.04562631161047874,0.11953999403165569,-0.15632540481180004,-0.0021335669113005254,0.08816150110733585,-0.06982137540612096,0.00339983193409238
-0.27337922789834224,0.14356308594890746,-0.014705656623400475,-0.029595180477050956,0.0592054303059127,-0.17193650680692935,0.049669147600173894,0.0580692573874169,-0.0625063617470527,-0.024528967373862075
-0.3329626507918329,0.08887625206967853,-0.030670731944335217,-0.009056257755747104,0.005001561901602131,-0.15695932310909597,0.08992248089971583,0.024777131255537013,-0.042719798131157866,-0.04127392016039926
-0.3522761619923181,0.02714787060219064,-0.047205120320559804,0.00770140136294624,-0.02792840105259673,-0.1150936425424944,0.12042174141668135,0.004565021925109985,-0.015817394525706296,-0.03555661760815204
-0.3391992281543802,-0.029171668676715747,-0.06120035637757383,0.013929389584884981,-0.03429862147419781,-0.05403497930189523,0.14252700088925735,0.00116491142343039,0.01145925663521103,-0.020509602478797427
-0.28958127561954117,-0.071039419540587,-0.06912917864905002,0.006268164553401614,-0.019720129716866056,0.01607540611227425,0.13446170996286766,0.019303859281576543,0.032317287728306957,-0.0034712157105141893
-0.21108054098099496,-0.0948365276471651,-0.06801325888856002,-0.014351735697288108,0.0021782456836994886,0.08432068439005157,0.09983251197257986,0.05449961428925442,0.04165483201209931,0.00785822808553319
-0.1186776883306305,-0.10236881441509918,-0.05629417587167578,-0.043070015919320415,0.015303821667718605,0.14071814655321632,0.058333698790746714,0.11007219586019124,0.03762496231541614,0.013182109604634005
-0.035671028158779844,-0.09908999391140717,-0.034517099959154585,-0.07262422148784453,0.007174060143367683,0.1778915670330523,0.02072648800352133,0.1431883596501892,0.022343798314365695,0.006603661101660625
0.03288949725611067,-0.09142647679364142,-0.005673563587665842,-0.09555782977157287,-0.026666941318793522,0.19242967237707853,-0.011737701212932683,0.13919893166062142,0.0012737789739442266,0.0013279768976161232
0.07821746514717105,-0.08429195547592151,0.025047548240530917,-0.10639417811850876,-0.08128161332665541,0.18547039684839073,-0.014861159412793118,0.10509377264239657,-0.018691964014692357,-0.008379086181497498
0.10127917662373088,-0.0796422744146727,0.05130104518465393,-0.10309119830584494,-0.1442185024766281,0.16213805371568488,-0.0011124807480177392,0.03128158263559421,-0.031812560057767156,-0.015790403955835718
0.10895961323130608,-0.07641293789495364,0.06734616096401462,-0.08735945767483826,-0.19970607070351415,0.13234770087127112,0.027798354046126152,-0.06895750648203901,-0.0357209446728647,-0.006827041051321423
0.11094713834674409,-0.07165053667236476,0.07006373176884709,-0.06381467784091567,-0.2335415507600812,0.09600705460389602,0.05312003451004833,-0.17469062157787754,-0.03233421502012069,0.013745313943735842
0.1159524544254923,-0.062298466349240404,0.06047255877275751,-0.038307859257702366,-0.23701674961023117,0.06603141321859594,0.07216872337164694,-0.26980076285121996,-0.02705049282284676,0.03934646840248686
0.1285724141904692,-0.0469992393397306,0.043997188707473774,-0.0160250583737774,-0.2088068416330161,0.04243699759058581,0.08558826071302095,-0.3350428040743255,-0.026556482647221376,0.06530343452665965
0.14785518715250212,-0.02735494218575922,0.029133951736174266,-6.12052746837996e-06,-0.15464362759298575,0.025145027500720715,0.08389855063747993,-0.3650935350206139,-0.03611948114244984,0.08720614838309634
0.16797497644453352,-0.0082195166359897,0.024816490673855884,0.009429502283990428,-0.08285232468494756,0.01262746112247369,0.0696819907061564,-0.3538038048507642,-0.057398917385672474,0.09588969382212446
0.18065380299410452,0.003245150796524087,0.0373883589974659,0.014205895640044057,-0.014084777605038382,0.0033394642594769615,0.06281510941864374,-0.308167056008443,-0.08757540602419804,0.09621009158241264
0.17837746687599718,-0.000261913347676783,0.06832762785622895,0.017232105463173948,0.04665937037630606,-0.0031382962447256404,0.03620472929681079,-0.23766759542721624,-0.12009004683640516,0.09231875222664998
0.1572429945675272,-0.023259726608082447,0.1136040312075762,0.02093869817598644,0.08780121746202103,-0.005673109266593024,-0.006502825029996434,-0.16287568988337978,-0.14670424788132153,0.09067797794570082
0.1184892552757712,-0.0647894308826661,0.16490410492659202,0.026231467056376724,0.10565699337749121,-0.0020231621553132724,-0.06397254741220768,-0.08726628609152735,-0.1601311246141093,0.0946126764984255
0.06828469639747836,-0.11715373800489029,0.2122250805234036,0.03223972607013125,0.10252060378378107,0.009998960212891737,-0.12451341025201493,-0.02277222012335293,-0.15631627100024253,0.10208003736803495
0.015959860536254207,-0.1669951494998575,0.24683939074003178,0.03684333955600372,0.0856151456465688,0.031086681722293685,-0.1806167034636996,0.018416065614649646,-0.13561674773183854,0.11676266557787983
-0.028634451092705918,-0.19877916766367554,0.2635844893613626,0.037638694023427975,0.06471684146942008,0.05936046161628763,-0.22435398606980905,0.046976916285707895,-0.1025589740559063,0.12896794796055183
-0.057731397372220154,-0.19972029506118114,0.2642951280988925,0.032899703623537016,0.049255719257989966,0.09022133565850737,-0.24820312751263346,0.06282009146210245,-0.06436464285278323,0.13934652548989301
-0.06739561905126874,-0.16446405091464755,0.2447789333174352,0.02220844759451167,0.04585814080961358,0.11732676296796908,-0.2485876835190468,0.0760957650476071,-0.02882366514527018,0.13612200195623259
-0.05797678998376437,-0.09778123416333723,0.21831290363935654,0.006652185936620538,0.057018753404074494,0.13435113297281734,-0.23416943256478318,0.08372009314340023,-0.002238700865617381,0.12148181037612193
-0.033347478162096815,-0.014171074787135564,0.18881606796758213,-0.01133775314748539,0.08109086717509076,0.13683137695753927,-0.20297099664399904,0.08848983511967014,0.011953024329731799,0.08536523413533217
0.000576009172553358,0.06567717022457403,0.16163844344990755,-0.028377224999319894,0.11333322111208198,0.1233971032498543,-0.16111771177787837,0.08192493727636332,0.013586616255446222,0.03074904123131286
0.03738719149728874,0.12055567529020397,0.13980875944143714,-0.04067858536230935,0.1474951819421311,0.09599966129052567,-0.1149731634114217,0.06795074018909683,0.005283826778173303,-0.03895448589388806
0.07133508885074898,0.1348090498345765,0.12361412964965326,-0.04475937952712866,0.17986142339857358,0.05919589221305406,-0.06612554263390372,0.04160198013370456,-0.008573965572882912,-0.11679115768505348
0.09791109261703557,0.10288937662491678,0.111211328632971,-0.0383054234511038,0.19783395791676417,0.018906875062000745,-0.0360088379921398,0.010587132778450456,-0.023008069431823625,-0.19357347668140606
0.11402684444621507,0.030925392609965973,0.10008473175093077,-0.021065597338710298,0.20550776630557457,-0.01880465029190241,-0.025623738424548587,-0.017622672884000483,-0.03347392110409,-0.2563671748319016
0.11805353447252147,-0.06517516153084851,0.08875402758724267,0.004507506730486993,0.1989405253934624,-0.04857931985546727,-0.03177231476152517,-0.03890582364255722,-0.036673263204872325,-0.2976922771292481
0.11238081342211108,-0.16436967954416476,0.07793637180427289,0.03323818730573399,0.1787378493388994,-0.06623930590620777,-0.04684900808457339,-0.04571475283905105,-0.031130705997308515,-0.3080774701737635
0.09095891720399503,-0.24624330769290698,0.0705459750335356,0.058089885297187914,0.14747727601588434,-0.06917870973671318,-0.0752877452308699,-0.03829925183009632,-0.017481234577515183,-0.2874597505602119
0.06424079400097886,-0.29604059781398945,0.07040270900416508,0.07186808773121033,0.10944105398192858,-0.05689076781965029,-0.09596582011631728,-0.021909656844747168,0.0016242949331238485,-0.23870278401132006
0.03392284169247766,-0.30759747093122414,0.0800940635668406,0.06934697607727129,0.07007144231440142,-0.03153394426820143,-0.10115937743591771,0.006587711212166831,0.02204147149577941,-0.16983095843817014
0.004836846468473337,-0.283663895510482,0.09884720167884084,0.04914235077342372,0.03514844446009459,0.0018674025700288455,-0.08340874495059933,0.03149233274802501,0.03900339137375056,-0.0890035234237313
-0.018476587821396936,-0.23394742784455186,0.12136193081382989,0.014645119751439934,0.009861281273668794,0.03601835407458163,-0.04655456658032332,0.05004200980303606,0.04814228024496336,-0.002422750395993026
-0.03273085803059687,-0.1717664049507312,0.1382959053987009,-0.026422842297021798,-0.001990710520866626,0.06287157225957436,0.010117389196478019,0.05837836864928318,0.0464243902203956,0.07380246340111304
-0.0365705855869832,-0.1103966698978513,0.13855307512582377,-0.06385852321518667,0.0014841462295215838,0.07573466867098741,0.06318074840860541,0.04502383065071024,0.032803767432088925,0.1271183000702343
-0.030753203577774012,-0.06007708495601376,0.11285529427029035,-0.0878003988039733,0.02005905627731073,0.0712799420711101,0.10088919115589737,0.02232991533427832,0.008474646016104159,0.16092082188202556
-0.017797010340332067,-0.026314260932837653,0.05747853059920566,-0.09170308189403625,0.051455710559348236,0.05070695995655349,0.12373487321316305,-0.0018607670847435556,-0.02332119627241577,0.17671545056399862
-0.0012349729565953966,-0.009698165954808451,-0.02325598760972307,-0.07449133718740254,0.09167798922000787,0.01955542140249062,0.12088721395969419,-0.021712953848678686,-0.05788626413123518,0.18051478364409057
0.015280429765580517,-0.007002186856990869,-0.1169262995599318,-0.04113669922530802,0.13560695981455612,-0.013880872920440903,0.09272349138190769,-0.033179602351866955,-0.08992498058908406,0.17135201228744834
0.028770762715129433,-0.013011127527583561,-0.20580955742512352,-0.0014327920048608147,0.17778435681718666,-0.041084160012924906,0.0641603726657317,-0.026539629069626744,-0.1145070954050144,0.15465049798457475
0.03745387287303093,-0.022410560574783543,-0.27186333715843225,0.03266507906248789,0.21320974679847998,-0.05595595877209686,0.019427037990374794,-0.008615708388292209,-0.1280240947422044,0.13685485546300633
0.04094047345016411,-0.031200024527131914,-0.30225241668160824,0.05039281170755494,0.23794923440569113,-0.05665062264150288,-0.038056611115737354,0.015036323570083334,-0.12905692604242086,0.11482967176067017
0.04013223495255137,-0.0373558064146532,-0.29341403368171226,0.04537001597339622,0.24946688250464205,-0.04593327777512189,-0.08784576855940189,0.03930187180875125,-0.11899100520810922,0.08698086033234395
0.03687212647332866,-0.04072463427048178,-0.252096986334132,0.017813144308489133,0.24676657506169253,-0.029938055694993766,-0.1190286300098018,0.06223337719209047,-0.10206435137339068,0.05150973549097052
0.03341122824141888,-0.042308341108940516,-0.19293095802138838,-0.024943331554671284,0.23050076741364248,-0.015843258063513117,-0.12192988166391848,0.07751547980981671,-0.08451792261329351,0.012976472380222493
0.03180251654173194,-0.043215118537838965,-0.13343034244532112,-0.07004236946486468,0.20308372650414314,-0.009441744143720726,-0.10857301941625189,0.09241615084018837,-0.07280998445716222,-0.03599854086938294
0.03337675575849086,-0.04362897134994713,-0.08832217375282658,-0.10264518236537032,0.16865551138864412,-0.01360579456641702,-0.0966857302499172,0.0908206609365412,-0.07138333336821119,-0.08011500553294675
0.03843995477758874,-0.04217008477372285,-0.06526814842322898,-0.11046641961341601,0.13266704517359035,-0.02816744690653827,-0.08999636558353519,0.08009796576297337,-0.08088091802864089,-0.1142310813164873
0.04625953026934394,-0.03594928118868218,-0.06337922896392938,-0.0877958127896117,0.10343774730306056,-0.051003735852204024,-0.09232248265578376,0.07152207638104455,-0.09763287588324938,-0.13115223781304755
0.055327256678806676,-0.021439818429731642,-0.07475915859555313,-0.03755657429973925,0.07825761761879409,-0.07954692042118999,-0.10313375128092514,0.07003069850980924,-0.11467229758814902,-0.13145425507435932
0.06382823673527256,0.003989558730847266,-0.08819546866335057,0.029337776128700806,0.06694436734919408,-0.11183650606418655,-0.12452129289711245,0.07862457101900382,-0.1238558737328167,-0.10825733159026023
0.07019882584887496,0.04035467962985199,-0.09347619947545698,0.09706125334208221,0.06591426454045189,-0.1466030188523862,-0.13275167028406765,0.09072276543045699,-0.1182995332841033,-0.07674038182533606
0.07361839921703314,0.08384388396283404,-0.08482091939379177,0.1493055078745561,0.07063950882926248,-0.1824784662179269,-0.13995296347704167,0.101015035343824,-0.09440214573601158,-0.043282588499763616
0.07427359848945028,0.12676328403546266,-0.06245762785869073,0.1736505434219673,0.07413526642743908,-0.2169334193277369,-0.13775168238249358,0.10790352921846838,-0.05300946695260985,-0.016730463821239928
0.07329610853606308,0.15892133153042656,-0.03212810115948873,0.16463244971274799,0.06886326878812024,-0.24569198221726238,-0.127002571659377,0.10479849272150374,0.0004725581727235706,-0.000393225861944678
0.0724078114862974,0.1701902445155166,-0.0029291427192696404,0.12476190220067965,0.04908390480472041,-0.2631122632270375,-0.10468642670115946,0.09312680601689156,0.057021114231112065,0.0043695028493635785
0.07343956278561477,0.15351253402657514,0.015755797469890084,0.0633761770280612,0.012937313971266172,-0.2635020734364112,-0.0730694934327715,0.07380701509894869,0.10582654633840675,0.0011095307979313552
0.07792050006196495,0.10741014208637972,0.01983602605015529,-0.006184015736579053,-0.03649393798490255,-0.24285569286160746,-0.034739922076771006,0.037790072857940935,0.13665782225948475,-0.004451159175935636
0.08683488844978038,0.03714962325071045,0.00023001095172165407,-0.07012005861985905,-0.0916626903097261,-0.20029690574637457,-0.0036212051152996584,-0.006997226846277198,0.14227811303026291,-0.006929211816800248
0.10050094821922577,-0.045923732801966884,-0.03137786714591379,-0.1173203545979987,-0.14260154369824354,-0.1386799443150952,0.02749553343045243,-0.05822210422740887,0.12037994020482666,-0.0033030078619053845
0.11846438586192942,-0.12684386263879224,-0.06847501732722552,-0.1412159866234903,-0.179929505853182,-0.06421448094453175,0.04984488830169446,-0.10735638590500753,0.07455426862725169,0.005451411890736786
0.13935821693963815,-0.1906840147806502,-0.09971789206052621,-0.14004796598176558,-0.19775189178121638,0.014616333666994505,0.06252572200423569,-0.15333810805541215,0.01394460819961304,0.015837485703503226
0.16079430248197288,-0.2264118686154849,-0.11232613504901855,-0.11592726168736743,-0.19536683512329828,0.0884157855230029,0.06167943588861039,-0.178279391258592,-0.048507726581983567,0.02288609286976832
0.17943328875593692,-0.22978791167672402,-0.10775902648567696,-0.07348315648604026,-0.17717055319562297,0.14819301314221978,0.05554981977348354,-0.18571548330685872,-0.09894193432920101,0.023147314154855554
0.19138460815788713,-0.20437216708537326,-0.07851203306103138,-0.018822300488405275,-0.15089593724730666,0.18652973915658574,0.04345294477450977,-0.1669974219532578,-0.12588258961150667,0.020453955839940228
0.19299950157701337,-0.1602716548836481,-0.032885543158159634,0.04095682234147428,-0.1249584241121109,0.19859215351213266,0.02672516120014379,-0.1366608096988301,-0.1230200680820616,0.014879944533741545
0.1819301906752519,-0.11101009684023362,0.01954649367990902,0.09798529449496507,-0.1059401323877804,0.18294655964823409,-0.00329920914304062,-0.0976733962752796,-0.09059657272827312,0.01105905892037511
0.15809718120529762,-0.06953845965991645,0.0684236270176832,0.14411045305547435,-0.09705894120833936,0.1420270549942224,-0.04377749649893238,-0.05804775708367616,-0.03497523528096166,0.008762369069615503
0.12409728194902632,-0.04466649904873643,0.105517627133552,0.17199952685830291,-0.09798177679702924,0.08204164165141908,-0.07726729081281643,-0.026586009649474437,0.03337179473587071,0.008751191518583498
0.08474699568832546,-0.03899911685991119,0.12664438164406583,0.17676680392850602,-0.1057808856944511,0.012169800203289564,-0.10919814415030103,-0.013180871562144234,0.10263688762108374,0.015588048177944281
0.04584403476634304,-0.048911685353123624,0.13199277725432504,0.15758338081475995,-0.11642605090413002,-0.05691529046986559,-0.12994066330934065,-0.0127330808915158,0.16217933437437496,0.02113398377120975
0.012599805191840356,-0.06639580084952183,0.12488145922040611,0.11851840126952909,-0.12610700876480538,-0.11496575545649768,-0.13436265763872454,-0.030946746526078872,0.20401329979832178,0.027459723563692306
-0.011679086949992666,-0.08199175093157784,0.10957416875915287,0.06802498914883005,-0.13190713325484735,-0.15413979253634164,-0.12393692735081172,-0.062440839563054754,0.22317094358422282,0.027831941922511996
-0.02622899852450298,-0.08773660261291062,0.08918076012925225,0.016988094421585005,-0.13177120451173033,-0.17058718694845534,-0.09350030865231729,-0.09528815463457767,0.2174210862998305,0.022625001215636945
-0.03264253456429954,-0.07921466241127573,0.0646147779340221,-0.024128907032112595,-0.12409880313717386,-0.16518243189420515,-0.06809131903486608,-0.12765431336884006,0.18701897513269583,0.01131132012392802
-0.03399987560205568,-0.056279367872373504,0.035057353650571464,-0.04806923278490692,-0.10743934703703636,-0.14308505113932185,-0.0388604341018645,-0.14516359128065665,0.13487580704551902,0.0017124525477291395
-0.03366820983191918,-0.02254012268203419,-0.00036779360179244936,-0.0524978132683074,-0.08060297076029609,-0.11212150169861615,-0.014003495569630058,-0.15239984938238618,0.06698133963969768,-0.0012405375549843856
-0.03419707209477127,0.015951844851024587,-0.04061405913038129,-0.040045753682957756,-0.04316847435036547,-0.0803955734202448,0.0011661541747520817,-0.14148240551647992,-0.007538352018706022,0.006157074989049273
-0.03666166925658977,0.05228410460094594,-0.08150757467979658,-0.01675614984738699,0.0039023459914534343,-0.05385913891992442,0.009406950766187945,-0.1117395582762295,-0.07737299533548465,0.033788583583737535
-0.04060990719143645,0.08008639149747654,-0.11604660590691626,0.010358586608775706,0.057885680693583595,-0.03464867719351918,0.010207866346756064,-0.06924764266520285,-0.13116877653976464,0.0690483802408646
-0.04454247804514063,0.09452197939826099,-0.13623541018321583,0.03564727392422941,0.1143390896423772,-0.020766585717180017,0.009289168978437484,-0.027385430200478462,-0.16033124056340475,0.10561259891273064
-0.04669312205145409,0.09286341021628401,-0.13580352097390322,0.05621302019856619,0.16755428755565122,-0.007231665375791984,0.001261680647980541,0.005321670224110677,-0.16145405901974774,0.1335153394543759
-0.04581906076335826,0.07478447056760831,-0.11279980023754585,0.07202785083589483,0.21131999469358756,0.011695386988879694,-0.008485443816269568,0.03252051950457797,-0.1373453509389721,0.14306314853361732
-0.041745027231641675,0.04247102142830982,-0.07108559137559238,0.08493970204917341,0.23993063033841563,0.03998165972931525,-0.016797035575365188,0.046700018622526665,-0.09615513529412822,0.11964249647920772
-0.03549865880497977,0.0005082018267259399,-0.020088310617852906,0.09708933010106195,0.24939288459577066,0.07783971339669664,-0.020246072627321622,0.05204628392358386,-0.04887895142685061,0.07897203801532589
-0.029007010682435986,-0.04461683515852798,0.027303907333299526,0.1093906289086599,0.238661573440545,0.12092823745896757,-0.012764224198643079,0.05590605135578734,-0.0061468018291208825,0.019249400969278803
-0.02446084044862616,-0.08552345216456263,0.05822198830824068,0.12066589688066902,0.21052813785792984,0.1609801085776799,0.005854131003473242,0.05673364110414647,0.024568179212374773,-0.0317729947111716
-0.02107886487058411,-0.11538490878759655,0.06364461107877777,0.1277817819673127,0.1716722114019093,0.18770224315864298,0.03900329841781367,0.06945082373512597,0.04043010046081884,-0.05902223595347429
-0.024566234497100502,-0.12948288654193157,0.041296049909177006,0.12675595786489066,0.13152932282571772,0.19147869190393343,0.07974877825350567,0.08694082289508463,0.04307981570817513,-0.05910157873577119
-0.03442584477598261,-0.12637019618912873,-0.0034495613447910016,0.11442949214440375,0.10003525371613242,0.16619749109804388,0.12056694415698829,0.10086030141624652,0.037124029441544505,-0.021756739167609507
-0.044087058408637886,-0.10818550465395614,-0.05904400888580176,0.09008050273763461,0.08480936051875371,0.11142278222418937,0.16127604825892702,0.11918916049895026,0.02800453364927631,0.04758734800642817
-0.053825001866782574,-0.07994196157560673,-0.11112554568200918,0.0563781273128163,0.0886730240507403,0.033209961595224526,0.19404513006535073,0.13543396316792672,0.020093382661219576,0.13003923695421044
-0.06140147665365518,-0.04802289898514789,-0.1465681649704437,0.019317601385722447,0.11085517179564364,-0.05682447901800426,0.21016969546455208,0.14529331320711916,0.01563331938714813,0.20572030506001637
-0.06511283991241969,-0.018456501928805977,-0.15682929641808196,-0.012877491771227493,0.1348891710739212,-0.14405458678581293,0.2165008979207514,0.13856514916513923,0.01470218534924024,0.25442743263206163
-0.06391377002761799,0.004389591310797464,-0.1371306855380957,-0.031597891561558795,0.15580176756577302,-0.21434554844342116,0.2013504614671778,0.10465561933847421,0.01595108931520019,0.2600427671317384
-0.05713945853512646,0.0183026153235804,-0.09877167600525308,-0.029988678079433815,0.158669335454854,-0.2574612664817654,0.17301737632775657,0.05336536784223518,0.017641636259060463,0.2172893415043629
-0.04420379178841958,0.022938479225671195,-0.04001007680659974,-0.004913762789682277,0.13501473860135385,-0.2693244269675742,0.13112896180330436,-0.008528755975975567,0.01853482563669987,0.1409280401413794
-0.02469431527462129,0.019127778889595416,0.018710116313282118,0.04170213950403858,0.08329026574880538,-0.25246793728650213,0.07827303124656555,-0.0748348792705234,0.018372888920421885,0.04936021984354638
0.0010234025220101394,0.008226719301235428,0.07690055440123512,0.10257339294856647,0.009934636092277228,-0.21467524422652326,0.023879827726831837,-0.14298160360903966,0.017913855231741226,-0.030247929247018628
0.031013778480065184,-0.008208903816957854,0.11557337636247722,0.16612707992679324,-0.07194887363997417,-0.1664426030237764,-0.02736623388156207,-0.18669771477495828,0.018634256370244254,-0.08579502778894121
0.061350083591196446,-0.028417357010133294,0.13561855774893766,0.2190168465471719,-0.1459397160157999,-0.11822018436127697,-0.07591876903078161,-0.2073011614136008,0.02227105225929211,-0.10276397907880298
0.08649429212884305,-0.05028139226847092,0.13068982744376753,0.2496516984308279,-0.19410198377596616,-0.07827303692018456,-0.1157458007665808,-0.18292463368541398,0.030336787793903464,-0.09018514749363556
0.10050945078127292,-0.07127967171490565,0.09980798465395375,0.25173186797866137,-0.21091489787097886,-0.051562864357316315,-0.13672539853540974,-0.11303835917045925,0.04365889473383375,-0.060142230306485724
0.09873027680677701,-0.08870097417519128,0.044867978539728015,0.2264399967781797,-0.19319410444750124,-0.039582594194904994,-0.13260151408135257,0.0005963043323013919,0.06193941929950647,-0.02618141908504361
0.07932534543271055,-0.10011093850561001,-0.029329491374090952,0.18219061811133416,-0.14041605894967304,-0.04084058256309064,-0.12352102737095223,0.14403293218350766,0.08336356213621486,-0.011649731000046508
0.04423556002560358,-0.10388505656219003,-0.11511649931981352,0.13177104139040205,-0.06566957614656618,-0.051723660112940974,-0.10511688048353889,0.28254363780385855,0.1043900556658846,-0.014738928531163386
-0.0008396141560139991,-0.09955014292605635,-0.20235423375852385,0.08790291505670125,0.017000369013138006,-0.06759135327273152,-0.07990561319061712,0.3879337642630385,0.11993930223672854,-0.04009701918968087
-0.04750035870885321,-0.08777567675652027,-0.2769961960639133,0.0590272630387825,0.0931176581780237,-0.08397827212424992,-0.054253496410143626,0.43560933418843883,0.12415336129290636,-0.0780122122379105
-0.08656875513028094,-0.070077329813932,-0.33540444104646683,0.04700277653482622,0.15062480766198513,-0.09766666601959405,-0.03656658119049752,0.4095496104333114,0.11171498093649433,-0.11395078987880734
-0.11041469821955839,-0.048483629973222815,-0.3615353280822967,0.047488644207743756,0.18211318015289188,-0.10725934586705448,-0.02101278251085924,0.3199876573578901,0.07946002700090703,-0.1377247581080359
-0.11503513029478885,-0.02541947176616894,-0.3538034859256265,0.052575724429022995,0.18606619887454717,-0.11293217024606829,-0.013370852022668713,0.18356993638470018,0.027815242143135452,-0.14200443036514737
-0.10123543322928136,-0.0038413400010727304,-0.3135404060863474,0.05434697016799913,0.16931815685113,-0.11538754691041116,-0.019105700108065754,0.033384637640326245,-0.03846053528649991,-0.12040887035170304
-0.07447086391965445,0.012646363230086033,-0.24723284002415138,0.047875813163938144,0.1331084558559497,-0.1145292585265107,-0.02960784127684315,-0.09735103086319442,-0.11060244451816487,-0.07533005882530662
-0.04327546209439415,0.020105840418710542,-0.1650921017379436,0.03267083531371513,0.09554117912960104,-0.1086668304236088,-0.04334865668176347,-0.1911431323787739,-0.17727728663113335,-0.01293401256300434
-0.016663962218775908,0.015214874042265698,-0.07892110651745902,0.012346381508620705,0.06364978217655246,-0.0948278425218301,-0.055202481227481934,-0.23181426325978433,-0.22681987663853215,0.0523632617441867
-0.001327639249462938,-0.0034259623797008344,0.0001045911857542919,-0.007085175683776185,0.043372714148038,-0.07008596802034565,-0.06877266521052068,-0.21098777933841167,-0.24973853436584484,0.10816978651041698
0.00034575009582314404,-0.03431207869809223,0.06329480009759066,-0.01959963053186425,0.03572783007723577,-0.03316283205228237,-0.08207126454729888,-0.14979241683673966,-0.24093553505613283,0.1424221561925558
-0.009364098833183692,-0.07304999640000912,0.10819950599011324,-0.021450706517601708,0.03722437076537516,0.014585871472296619,-0.08833736053846977,-0.06727933906750558,-0.2011682557167487,0.15025571561996118
-0.024867967034822896,-0.11354786741837362,0.1266136471014703,-0.012653325308687811,0.04194145790164274,0.069247867630638,-0.08745958304379377,0.01954619883194634,-0.13737252083866122,0.14230640743866058
-0.039670844508078375,-0.14989694040874266,0.1292875186891911,0.002835732158185268,0.04452493645284266,0.12529313592891728,-0.0880225419725148,0.09341414140156075,-0.061602477014475514,0.11691748794059738
-0.048743820630163366,-0.17806510252886376,0.11986887977801347,0.018357334097677227,0.04292644830810914,0.17680309271139213,-0.08143458297709813,0.13252522422044657,0.011400625135779342,0.08930947683578422
-0.049965795312853736,-0.1966508080938891,0.10814810618627704,0.026862982472704102,0.03970528647460311,0.21849178405491063,-0.06657001749378032,0.1429528126403537,0.06759123498056964,0.053228913923424034
-0.044296954671440646,-0.20648589182920946,0.09297540453778873,0.02356005896919374,0.04118835516187635,0.24631215172046034,-0.046329838265052596,0.12942298173474803,0.09709902223617088,0.019530830879592967
-0.03491443770535205,-0.2094613123549272,0.08559064479510294,0.00797030561035656,0.0546154152528057,0.25767439551498894,-0.0275676780092651,0.10548052348178881,0.09671818603833009,-0.006013756000967457
-0.025851373741250773,-0.20723986661079188,0.0839851174399159,-0.015398260641150373,0.08430756215273252,0.25140586524909825,-0.003451857242567858,0.07491295550071925,0.07050644961054173,-0.025420513947920834
-0.020686980410389987,-0.20042522247454325,0.0858810998901786,-0.03815093144331469,0.1285028602290373,0.22761178574949478,0.02063620573633563,0.042369046537339944,0.02823238296812271,-0.042667322236283126
-0.02165888049024679,-0.18843142491538986,0.08753257378899429,-0.050649161955753294,0.17845293005346158,0.187583392248363,0.04958261575192223,0.01679887792742613,-0.017752158963413815,-0.05343518110379142
-0.029354130081326202,-0.169960859450805,0.08539217301951194,-0.045361755718164885,0.22055376878870223,0.133833333831423,0.07184038169560389,-0.0027957609545801684,-0.05603738013533046,-0.05814844136713803
-0.0429353421122253,-0.1437848089091804,0.07758660274316809,-0.019746401183824126,0.24095354099948274,0.07022905989255096,0.0779293097315369,-0.016058576628110815,-0.07886669374417889,-0.06368368547240753
-0.060667025027915655,-0.10946107204147205,0.06467198377899737,0.02241545301976892,0.23083118265590782,0.002087459941678863,0.06974904628533853,-0.02311200400377708,-0.08333044008590512,-0.07052894195255024
-0.08038308853385047,-0.06770657668502708,0.04936705550476357,0.07177103041534937,0.19004814043344673,-0.0639623670440358,0.04456748582439934,-0.03434839140352332,-0.07105670123726827,-0.07996831796914326
-0.09960507127327747,-0.020330285996736117,0.035353143841857934,0.11601411518747155,0.12751127200072998,-0.12051380418928583,0.0013598647684528072,-0.04097843962259305,-0.04694405592256131,-0.08470445692088968
-0.11531597781222808,0.030165229978343176,0.02566156638982852,0.14347644565244097,0.058092588348997866,-0.16036725760010193,-0.05249668892201635,-0.03192975503984399,-0.01760760890207486,-0.0863369571978783
-0.12375303642566472,0.0810843499759896,0.02140066632212702,0.1464990981362018,-0.0024793070135651525,-0.17784926655237723,-0.11483587135493235,-0.025985473411327908,0.010009377301967364,-0.0766871672313131
-0.1207462582462563,0.1299051705092353,0.02142015084257619,0.12354859509391941,-0.04255375484386462,-0.17018405219339386,-0.16488573032297424,-0.019847584707912088,0.02971935230586884,-0.05870746850304957
-0.10293261077820005,0.17435379694873473,0.023022123904742765,0.07952852147592704,-0.05743060442155984,-0.1385350238923662,-0.200178082723632,-0.012192059398470925,0.03690528306720938,-0.02789821399884421
-0.06964522664699167,0.21216688012380716,0.023289491251010735,0.024308812308574478,-0.04938716103495074,-0.08835001334319437,-0.20833220807659855,-0.010860329653791776,0.02909579705821519,0.007686399896915701
-0.02465571793152391,0.24071757819707962,0.02032931307076102,-0.030031057999381005,-0.025343384021759195,-0.028785696064929103,-0.1896167013310467,-0.012854892837503133,0.006269669994213,0.04712451863488722
0.02336064623070637,0.2593321187653993,0.013859619709333401,-0.07243699761075988,0.006493083207709715,0.028783378409677894,-0.139928448836698,-0.017635418144230447,-0.029138268151351152,0.07536990222931395
0.062419805358390944,0.2571370708717296,0.004994256129845173,-0.095668502216788,0.03951291018246417,0.07292042571780853,-0.06705936719418858,-0.013161851850013503,-0.0725015095363607,0.09660837595944217
0.08070126034607387,0.23912393992492667,-0.004470130505091481,-0.09785605779441789,0.07013660541076579,0.09451634376040914,0.009390777876690917,-0.010284718127818365,-0.11749484916740671,0.09553327297168122
0.07064277178805495,0.20266019573404015,-0.012757634559471607,-0.08245584988295417,0.09760964026722585,0.0889083318549744,0.06585421124880485,-0.009270103277561663,-0.15684723145456467,0.07528296207232828
0.03189422746364292,0.15114115867846425,-0.01845212562924625,-0.05677417594397355,0.12266538933344887,0.05722966617120583,0.10066644571349845,-0.013347388701454256,-0.183445899822934,0.03698389792510571
-0.028221393687385552,0.0914897537845838,-0.02049360408852157,-0.029663623617239322,0.14587703039145763,0.006564076212458029,0.09598259228323165,-0.03474741608245277,-0.19176944821922876,-0.013807278188676834
-0.09696444388481891,0.03277963450780989,-0.018154508251006597,-0.009128491472790518,0.16645191873993162,-0.0513450946378836,0.05327869629862121,-0.06877058376675768,-0.1793264727891843,-0.06355520781690008
-0.16014481836695812,-0.016081500953489286,-0.011295128361716455,-0.000428906002763901,0.18190690687082506,-0.10274200061075944,-0.005793641951583573,-0.10244210666699784,-0.14752139112800458,-0.10366050331009412
-0.20609992107511602,-0.04871946046170365,-0.0008693380100371476,-0.005004104063896608,0.18867104029411214,-0.13532133574684416,-0.09233716957560531,-0.1383109202146626,-0.10145113168210917,-0.12080789426572523
-0.22816543471278627,-0.06278747251273342,0.010698888720523296,-0.020313283565663164,0.1833250720538743,-0.14158706694494316,-0.17504986979273976,-0.16765546150033622,-0.048599349755075474,-0.11149713702308596
-0.22501688036081624,-0.060062183971177026,0.01971837530138279,-0.04057005545171114,0.16398048427438508,-0.12108096579640791,-0.24516504468094916,-0.18447396073002528,0.003054584898123195,-0.08529305840837886
-0.19933842163685664,-0.04522733233544426,0.022176640464881093,-0.05825407170991569,0.13125848532369952,-0.08070635729410043,-0.2781615312292261,-0.17571015963224773,0.04674601750599364,-0.041665750155608416
-0.15593331258457896,-0.02395940185153675,0.015139570623648554,-0.06612778084467114,0.08846874072671745,-0.03291020513363271,-0.2582694147111344,-0.13751084803891034,0.0778969798810469,0.009330131553145828
-0.1003285439213788,-0.001152042962324695,-0.0020018205406967557,-0.05927535579341497,0.04089031795139938,0.007855931543353449,-0.2093419678991285,-0.08015108326109038,0.09426948085273504,0.059149199852251116
-0.038303914608544154,0.02004814652300028,-0.027024290769187703,-0.03655461924264732,-0.005586237443012023,0.02939709472485617,-0.15093780662379155,-0.008699959315332236,0.09562665202785747,0.09105251859800773
0.023953740352383304,0.038173713040718066,-0.05535205922989466,-0.0009646687200116105,-0.04596796440691038,0.02544602394148666,-0.09110700566098837,0.06371473500050666,0.08333928140775444,0.09841694888189813
0.07977480008826497,0.052615672325285474,-0.08131699580587184,0.041210831951795514,-0.07733069446867487,-0.0024818748053976984,-0.03742750855755557,0.1274582089412479,0.060198608299159,0.08172172965885324
0.12260749050356418,0.06263052863133514,-0.09967474274363193,0.08218519723084136,-0.09931040927022923,-0.04574657949408597,-0.005892576950143825,0.17457747299624404,0.030399520653030428,0.0415167175316147
0.1473851565714567,0.06674572143503367,-0.10681377272203357,0.1147641311573527,-0.11374613695725437,-0.09158235623931509,-0.0036540154905835413,0.19825464672795662,-0.0005721576213156409,-0.009016661707329662
0.15462244394888006,0.06287094840272886,-0.10131568590818421,0.13409183273851216,-0.12351769823995415,-0.12736284620520993,-0.029846199813744312,0.18682384933132698,-0.026464093019679665,-0.06516098834929522
0.13886653796293388,0.04905836737868984,-0.08385684366524426,0.13859170034332063,-0.13093581825278805,-0.14455858386940101,-0.07430238084999155,0.15099295434032578,-0.04135405615480275,-0.10932214119418625
0.11339649077767282,0.024555538552461984,-0.05670014631378318,0.12998249800885628,-0.13635555001677993,-0.14100270265398443,-0.11760495919419779,0.10053138937671484,-0.04117841879313128,-0.12566962762693573
0.08365714438097606,-0.009316770416921529,-0.023096423482726215,0.11253050389026538,-0.137736995352344,-0.12084004811354719,-0.14476700628680794,0.050141480800128736,-0.025240395541531697,-0.11599325705952142
0.05743952852061053,-0.048836083158317646,0.013194971009944413,0.09181432572879064,-0.1315144432772601,-0.09243964299224113,-0.1661718406972625,0.004828357927621436,0.002910922418793893,-0.07892780524102916
0.04020151089758098,-0.08826438497041997,0.04823934773500835,0.0732810667692424,-0.11449352054315243,-0.06521412337450636,-0.17613717344016785,-0.027562301153402722,0.03573916286833034,-0.02505135371170746
0.033902837330856674,-0.1208929397220553,0.07820792683993864,0.06087194887343497,-0.08345626913861663,-0.04655452696135813,-0.1801863855677907,-0.04943447141717543,0.06329604283116219,0.04478424007599824
0.037198093799475834,-0.14049234416565573,0.09968886129827506,0.05601670368195385,-0.04898976826429022,-0.039949071307481494,-0.1455407549364109,-0.060122784219928095,0.07585819353386966,0.09538399829905052
0.046692304987099545,-0.14276235062720916,0.11000911313649657,0.05726242175361594,-0.010282735857419092,-0.04485879649502051,-0.12187414666897561,-0.059902769648103406,0.06696656598123359,0.12026903972691419
0.05858846790569166,-0.12634284790158148,0.1074862726437417,0.060663353590831456,0.02169849515365731,-0.05820263184981806,-0.10998651098418881,-0.05655855642566566,0.03595271465472403,0.11525617628224367
0.07005454301202287,-0.09309789807664132,0.09158218585939452,0.0608677392145824,0.03942385213503671,-0.076618881148582,-0.11260009461303844,-0.0461830674909441,-0.010969572670048323,0.07610527395976653
0.07991846647261767,-0.0476623312819715,0.06303335603868579,0.052680009986010405,0.03883949578276441,-0.0983357835640155,-0.12059632127136333,-0.041791321999629615,-0.06165316259417986,0.01361635628238465
0.08863835900799975,0.0035203189279454923,0.024054137138648974,0.03276593195560691,0.0208734238842993,-0.12370004608959301,-0.12619157466365435,-0.04210160106344582,-0.10100615306008447,-0.06518244190715507
0.09770386209226146,0.05336753120721254,-0.02140546494993524,0.0010811356674948933,-0.008554261328832767,-0.1541046918066059,-0.11481976590895374,-0.04589309460717133,-0.11529712136077241,-0.1460706565747779
0.10868182056889632,0.09531107521193735,-0.0675448559043371,-0.03842688932285496,-0.04001002683120059,-0.1898835925315478,-0.09708086146203417,-0.05601174898879399,-0.09649532890747867,-0.21671219305233838
0.1221490989037197,0.12431725712877266,-0.10705962527376577,-0.07818683269074281,-0.06307068955321168,-0.22828561039806777,-0.06046828735216203,-0.0682686612791184,-0.04523227332330953,-0.2713534053267791
0.13685524476803843,0.1377024171647791,-0.13222403557966345,-0.10851863082794858,-0.06914311050326996,-0.2626536800791727,0.01348062658264439,-0.06691742612900725,0.028631288818925727,-0.30505859886334097
0.14954256269465077,0.13564768234370397,-0.13671499849364313,-0.12002900648499094,-0.0537337180757865,-0.28342219750813846,0.04667437365549581,-0.06598186612520808,0.10806974220142049,-0.3173132643124315
0.15571647721377752,0.12127766746124735,-0.11774634499161377,-0.10633018556970601,-0.017516481098886445,-0.2807457984902332,0.06917397167014548,-0.059519615616903124,0.17300361906749576,-0.31724784463153316
0.15123812346255228,0.10018225474523952,-0.07768997451896748,-0.06637631960056872,0.03399446643718183,-0.24784843912209686,0.08059837494440213,-0.03821473376270968,0.20532722444856794,-0.30853233340844133
0.1341221614657331,0.0793691801551388,-0.024303145518151017,-0.005730028381539423,0.09185409141507841,-0.18386577918858996,0.07914111672922011,-0.008122876744301916,0.19357083372408604,-0.2900897348847599
0.10571174174039782,0.06580902786652115,0.03088214214877698,0.06374602510097856,0.145583826260434,-0.09515952374426574,0.06794441374877074,0.021446098134550576,0.1360768579288764,-0.25903864761762135
0.07064871452154313,0.06488295208880933,0.07566126628242856,0.12593081265339556,0.18502712004203886,0.0053571215193152005,0.04283625488020053,0.042636491529922126,0.04191504684180064,-0.21453636300274076
0.0356323266758877,0.07909003369478944,0.10066735994836573,0.16391565523402588,0.20191109633251017,0.10072871925724837,0.028580752711082038,0.05326972698738798,-0.07078078530656176,-0.16044426850021073
0.007527345577649173,0.10731194693582184,0.10195453085201564,0.16415560518094632,0.1911116764477343,0.17369371569188832,0.04144420343529122,0.05689610117653456,-0.17882860863095743,-0.10273985326912677
-0.008373563200042372,0.14481647007571063,0.08170804790715164,0.12027556133961331,0.1516834204245018,0.2107863029007276,0.028903801797486958,0.04641552017457673,-0.2595491037087191,-0.053284681468065066
-0.009309879075620975,0.18405394690233381,0.04693468153287427,0.03547057856459123,0.09006398000933795,0.20583477548685533,-0.0002212043979635996,0.013576014963344226,-0.2964942503747145,-0.022525301324126924
0.0049307023229125755,0.21617078126336,0.006758766215090486,-0.07733164938094962,0.007659257102831397,0.16191515427430683,-0.021692965238951,-0.023696517792828782,-0.2837068705103654,-0.010413048768768801
0.03264781153724478,0.23300403407367637,-0.030625977137110516,-0.19788207323452478,-0.0749970525730241,0.09106490070770341,-0.045579372175347084,-0.0567819870914628,-0.22708319907865282,-0.02462233811938011
0.07098977176159471,0.22912054529469392,-0.06028305786556297,-0.3032207765700048,-0.14520927713394066,0.011588824259811824,-0.0728254183305028,-0.08736619312026382,-0.14225611748085035,-0.05335740807055236
0.11639400863961227,0.203308790196191,-0.08137787855598663,-0.37336698615370656,-0.18869792032727728,-0.056501545226364934,-0.09289239968084319,-0.10677414848121933,-0.049649838465556206,-0.0795264083953427
0.16458650088085405,0.1589914625789151,-0.09631680738321609,-0.3964770751890299,-0.19574645033246318,-0.09674185555606067,-0.10890868927789883,-0.11490391425872432,0.03157691846785529,-0.10545836152367288
0.21040347622865177,0.10338828695819767,-0.10861296177408035,-0.3718817643623688,-0.16432066021363126,-0.10069226963210415,-0.0932421412144164,-0.11226135168720114,0.08861273201632949,-0.12390899491410896
0.24789504750318384,0.045765880298353656,-0.12045923318850044,-0.3100165220386864,-0.10146307412029425,-0.07032065832369393,-0.08170418525180058,-0.09795405731735043,0.1175068321419962,-0.13090167966356692
0.27103426639212785,-0.004563969762378936,-0.13114483473162641,-0.2292448718848908,-0.022177903463116194,-0.01752625550337257,-0.06260640617103445,-0.07406094082425509,0.12260346785601565,-0.12043853698850442
0.2749677977970599,-0.039912932292047204,-0.1370830947821257,-0.15057416972710058,0.05416186181240361,0.039168115605951334,-0.03277281487498688,-0.02941470471706307,0.11353695644870077,-0.11525410985256901
0.262219371482112,-0.05533588271955211,-0.1334785157034572,-0.0919036179171304,0.1089068719872254,0.07990562297137274,-0.007732587469154941,0.028053713171158984,0.10116490486697498,-0.1339870004550258
0.22379457627308674,-0.04929968011483375,-0.11689708335728702,-0.0634984542157829,0.12911132289067237,0.0892849525688257,0.019615195750486536,0.09013579865416962,0.09392844938598438,-0.08932527749841679
0.1660219927764716,-0.024007368840456643,-0.08755862976651164,-0.06587444054951781,0.11328076668084808,0.06091353135762997,0.04402858331284171,0.16834088031950845,0.09570759722145719,-0.06923188087489623
0.09732322215986222,0.014720009705627025,-0.050246032260884366,-0.09046098158158122,0.059440696753871224,-0.0007466971471592017,0.027010504520534113,0.2218369671939861,0.10556040369019698,-0.10551415385819812
0.027761651045521963,0.058211470787368075,-0.013315546450382918,-0.1226229929510376,-0.011850034607091218,-0.08189586788140092,0.004462852433310124,0.24710959760325396,0.1190697714324329,-0.1462126802394162
-0.037404876742471886,0.09642168793297846,0.013854598026069042,-0.1460800050675661,-0.08614275960893902,-0.16375833976892357,0.0016760576643670005,0.2463151962875742,0.1305552595348411,-0.1671581797797466
-0.09112472649888433,0.11988988214415953,0.023941096910913146,-0.14751624434257068,-0.14683993547244578,-0.228208425902452,-0.031058103901572102,0.22488120003231526,0.13525105989310787,-0.15978785015992983
-0.12287246630538698,0.12176105062772893,0.014052539060531387,-0.12019523364954426,-0.1815350081472138,-0.2626533176849183,-0.08589532571501815,0.170161667071907,0.1307386328572505,-0.12989996417846938
-0.11436924761886096,0.09940764221301827,-0.013438947008274965,-0.0656550774731047,-0.18458906506892472,-0.2626212080023679,-0.09466021362497294,0.11612928241238424,0.11734417017197717,-0.07721080142052265
-0.08899794882317824,0.055240936755259595,-0.051773552962306485,0.006941067338675721,-0.15789484542060908,-0.23156812384142844,-0.1013589215261533,0.0719203029195139,0.09763612013549008,-0.007090588895729287
-0.05952493864121049,-0.0035875930522270847,-0.09193817209836529,0.08356099942312106,-0.10969830719047609,-0.17851945357582577,-0.10369169882359254,0.039655848319333165,0.07539323420759853,0.06294447649645427
-0.030236519193011416,-0.0666667538485824,-0.12529819543665296,0.1492906141227265,-0.05183055466587854,-0.11482646490348733,-0.08334141630738616,0.0230480926654062,0.05443202503438347,0.12080653619727838
-0.002286602356658853,-0.1226933621993335,-0.14594964760243398,0.19231334683507478,0.0038457913489195693,-0.05137246463397386,-0.04287963603749647,0.02805799409381856,0.03758921573740126,0.1554641910342599
0.024084780822307403,-0.16206920984987672,-0.15216707099862084,0.20670178290290397,0.04874417584090438,0.0029186044895392763,0.00693321329416916,0.056402165769543086,0.026060128071556058,0.21197665366129595
0.04737452969334465,-0.17894485764050724,-0.14654885899213843,0.19329003171316994,0.07966486484973488,0.04120080236472293,0.045313942365933446,0.0979333707104266,0.01922424230680033,0.23836352058804988
0.06586462578354622,-0.17215657400677023,-0.1347756640985236,0.158556639897843,0.09908285604691149,0.05810746355172071,0.0769670546257284,0.12470340343871283,0.014992649057418345,0.21745008824040785
0.07853262493612212,-0.14495253050058127,-0.12333413969841972,0.112082127490418,0.1134725260562715,0.04940239780994473,0.07416014588713127,0.13270734802481404,0.010547615991755301,0.16064779725332287
0.09215418262887905,-0.1038010941702469,-0.11700499097987957,0.06353983091580016,0.1301352464460861,0.012589627466533334,0.05039018010017861,0.11096824226789231,0.003171139288727501,0.0976672540327041
0.10641449376981253,-0.05672684464470564,-0.11710106145097565,0.020222258661527895,0.1536091809603765,-0.05148940167161344,0.0035897211436449958,0.058199559255752764,-0.009179577402901404,0.04841979686052103
0.1306813654555968,-0.01155751893584662,-0.12117233717581531,-0.014184720702807971,0.1830834577399576,-0.136776519707267,-0.07065486500843225,-0.009890034567786424,-0.02770675809814572,0.009604330447626876
0.15424368211017414,0.025635901331211432,-0.12426537071033716,-0.03936932176859325,0.21202122259119022,-0.23095513897079417,-0.1331948429955073,-0.07638560692831048,-0.052859449455167073,-0.009225189289908915
0.17245024793818048,0.051643432892147935,-0.1211601831846881,-0.05702774064992886,0.23037467573623008,-0.31625452468899806,-0.1436527135355828,-0.13432286966609475,-0.0843173793430188,-0.002363347859256114
0.18104159186696653,0.0664989521195915,-0.10861775998018977,-0.06907229431252179,0.22866033750739295,-0.37249516784968884,-0.11543703487123522,-0.15449776800092346,-0.12062442177926688,0.013142593098838511
0.1777061025001405,0.07298883999792723,-0.08669696497271184,-0.07620961734858873,0.2022728326537385,-0.38187354460679557,-0.05975931080454222,-0.13870711628304214,-0.15859526490163545,0.03269842190223886
0.16294328282876225,0.07538994822719973,-0.05862449256119703,-0.07743628052690077,0.15420001869552635,-0.3341478163567352,0.0016070105257680002,-0.09297239923976183,-0.19297759615589208,0.10124298307714741
0.1399380341385831,0.07780957642993606,-0.029366461855306784,-0.06805166583953688,0.09490306236219015,-0.2304805178231933,0.07068104745434811,-0.017846095413409403,-0.21691163738495928,0.12656929150462698
0.11348529583077609,0.08262956303939506,-0.003645889965685657,-0.0460103614450248,0.03929169288419803,-0.08445844505841585,0.10301866548346529,0.05747593167717798,-0.2234035658692093,0.13496885681069512
0.08834717002884963,0.08950584407919192,0.015651960142197066,-0.02047406710831938,0.0019269082859869832,0.08031274027069198,0.11292599056216723,0.12118210468244121,-0.20748904624335904,0.1269561475163261
0.06768373897548809,0.09521108417657766,0.028042694272867628,0.011791595525217635,-0.007726389238230048,0.23550548264143648,0.11958778598248526,0.1724688433407211,-0.16831497023040107,0.11206452524473291
0.0522191025667419,0.09441263772044052,0.03490763594508497,0.05408627577954265,0.011722469076858883,0.35477615846990146,0.09764526620719094,0.1791751968214269,-0.11027081217773838,0.1077220337484191
0.04050478684806727,0.08127973301833395,0.03830328609526917,0.0962557446739108,0.053322514400932254,0.419948816315625,0.06888845002824281,0.1480907581163704,-0.042621255633809425,0.12847381085892154
0.030123215247856827,0.05159801058546419,0.03976453409890635,0.13297048763487762,0.10412781503695055,0.42491846917304543,0.04245181835946649,0.09302456610041891,0.022332679552509865,0.15104394028517135
0.019193518983464965,0.004841658395773442,0.03961889784461874,0.1598794100091122,0.1516786181567072,0.3762567030001908,0.019226093051882647,0.031086272754918327,0.07199118503881925,0.17788086812342516
0.0073899047217389924,-0.05450744893598808,0.03946486893510327,0.17442305892423918,0.17571586329764466,0.2905627029780399,0.01264001859587637,-0.01497458194738761,0.09624355837923415,0.1964850286882937
-0.004010514128610448,-0.11705822251414172,0.030138206382312727,0.1762671737855521,0.17638354600986442,0.18957221507174304,0.01120575537331392,-0.024512950659501435,0.08953633817185849,0.18461965531570373
-0.012936639493699062,-0.17033297289107363,0.01743965070768314,0.16725316454466388,0.15060860495289854,0.09455883420927422,0.003688275063873743,-0.005496386595437195,0.05180041178756478,0.15762163410881216
-0.017580736771942305,-0.2020007220219227,-0.002082314613572981,0.15084992011924406,0.10388477073163138,0.02154334473992969,0.0019913187111376207,0.03574446322826424,-0.011762431069049976,0.1631302867172853
-0.017029073786908707,-0.20357341279184288,-0.028061313025030052,0.13118008893493568,0.04543998036102118,-0.02158976972215239,0.009652538590760585,0.08733730779051406,-0.09175072650729163,0.151764665213378
-0.008688544183237355,-0.1732990755868404,-0.05861707339803175,0.11183859331905681,-0.014630262921581807,-0.03558774481302557,0.01987859729091339,0.13941922106419324,-0.1761603461913415,0.08901555961563645
0.004592488900492396,-0.1171822704956369,-0.0904946751244977,0.09490241526325151,-0.0676822441987447,-0.028119738818557016,0.020610465643319698,0.17073949275098488,-0.2522693178688922,0.010494575555424504
0.017869277119651212,-0.04769843539358531,-0.11943266948951989,0.08058216324968764,-0.10770067478350596,-0.010603726562712974,0.016619456925654776,0.16018026839090865,-0.3086332766242108,-0.052377688776548186
0.03554283678505411,0.01944225452456563,-0.14067663275665282,0.0677324761431173,-0.13136717609410886,0.005394669469251458,0.015312552086297691,0.12942114599545132,-0.3369560742178413,-0.08568093822622812
0.05944110603073967,0.06949332254491083,-0.14963472166622147,0.05499046503596202,-0.1350489344756371,0.011215708855171506,0.013596257597784243,0.07611742870634484,-0.3334980530543411,-0.09618498465911056
0.08519160815589506,0.09255523535550526,-0.1402826420248669,0.041930991392863166,-0.12684115160647494,0.002968439726093959,-0.0053011239574265075,0.020892933581612476,-0.2996743328130774,-0.09359404621735402
0.10933005224559605,0.08597700124863179,-0.11885795330371678,0.029580017607202202,-0.10144377609315997,-0.018034657477797596,0.0033168761499949074,-0.02051006235373943,-0.2416331649085694,-0.07488223305421952
0.1269348796051848,0.05459067556326377,-0.07999842868029032,0.019964574345351465,-0.06525111859394275,-0.04618360651224837,-0.0026967440806768446,-0.034132378171945824,-0.1688414483235632,-0.03901670586529008
0.1326184684707813,0.008811913290806883,-0.03217319119326581,0.014916775345850118,-0.023883272152604957,-0.07349385107958958,-0.03835557271505337,-0.02426683570663698,-0.09196053208327223,0.05838488760298824
0.12211268980003634,-0.03865891283125978,0.015605105280088643,0.014786386990136994,0.015681945154942048,-0.09202447722430898,-0.09001921603685717,0.005522777927985717,-0.020508101445667122,0.08109790566795369
0.09383715205014484,-0.0764008696701146,0.05337789336380051,0.02027125378458016,0.046140139383977874,-0.09612627938903581,-0.12247605115263882,0.03918886264406451,0.03907917264080852,0.05744819790973314
0.049796548699448544,-0.09701427445706616,0.07314591038350234,0.020254806747869735,0.06146423060574528,-0.08386728604582619,-0.12151389962168899,0.07775415821385312,0.08439857037796358,0.00679220448149202
-0.00458518261494362,-0.09836720656829645,0.07151046487080266,0.018120057139574677,0.05859579746323535,-0.057245099851029976,-0.0617730854611552,0.11376514509843035,0.11670773016790813,-0.05587719557413803
-0.061663267051851066,-0.08323646706623358,0.05090153747336105,0.008559899185425605,0.03854405362848337,-0.02125994734610473,0.009143977996635171,0.13330936856349482,0.1393410981036447,-0.12910445449497884
-0.11340289225523952,-0.05772879699497102,0.018789175417001803,-0.008439377303880643,0.0063334874038098,0.0176374808498895,0.052196149237093856,0.13431215756865805,0.15556100351000982,-0.18834458152046832
-0.15327098947729215,-0.029166993833452174,-0.014875333640885207,-0.029647446855803554,-0.030332874220934468,0.05306786608281854,0.07811851415544027,0.11609831845574758,0.16679397996048317,-0.24450557602232859
-0.17765196721914275,-0.004170783258735704,-0.041036319767350546,-0.04942426262917332,-0.06081236394824198,0.08227353678614632,0.09773551700987605,0.08320809627954753,0.17205692470339615,-0.21383317461565116
-0.18641448542385555,0.012542722012021775,-0.054520944337907044,-0.06160601619548621,-0.0863967950110357,0.10149333683943935,0.11962711066824777,0.060720626142747335,0.16881294860207355,-0.17819597267513326
-0.18248554308721432,0.01848565339501998,-0.05564900547359901,-0.06175988128471295,-0.0969248633098522,0.10144705002974175,0.126289325136789,0.03412286207136253,0.15479163302396362,-0.13667545262389713
-0.17055288173120428,0.013074240340124983,-0.04999903503716191,-0.04890162143824475,-0.09607717433320839,0.08429963552608745,0.11381693053663484,0.006461256137395512,0.12981391430168926,-0.10186457448805919
-0.15527695467034944,-0.0029205609806760057,-0.04646924062001132,-0.025981106851262956,-0.08794719956906541,0.05191477843095071,0.06627276331562823,-0.03763735361914621,0.09664403969572267,-0.07177745049277716
-0.13957385772983527,-0.027756166805540505,-0.054285318340822196,0.003480809707832235,-0.07786074790946189,0.015500726666801062,0.008267191582550619,-0.08176833677750477,0.06040121970776158,-0.04040008886948207
-0.12355125901741242,-0.05876696005510025,-0.07742600040339537,0.029506465650515453,-0.07048825150352757,-0.024312386436117172,-0.041430329263168336,-0.12945945126964375,0.026848059002822888,-0.016009861868631736
-0.10450672405197847,-0.09218716465606706,-0.12490135664916877,0.04053969026695417,-0.06583730423759712,-0.06169986151491305,-0.08044090679682028,-0.1844354532844299,0.0004665651379422828,0.03300122463641326
-0.07807200858982709,-0.12306619496805773,-0.17996064643281778,0.0390697416357058,-0.07111559375526846,-0.0921020099846017,-0.06344388752673649,-0.24094369402513613,-0.01673169888085837,0.13341272740205112
-0.04020762645142812,-0.1456413045741511,-0.23046386209748032,0.021299444141388367,-0.07608267677760318,-0.11323043912417195,-0.05422294989691301,-0.2787905942625365,-0.02522440715506847,0.14335886963040634
0.010570313174868787,-0.15435514882494197,-0.23406993402013077,0.0041947344981319475,-0.0791681630731649,-0.12511726855724917,-0.06540493027742458,-0.3162544192269492,-0.027068925846996657,0.10887833613686825
0.0715242581851308,-0.14534208046016078,-0.22436236654745334,-0.01397615181895069,-0.07650277907088637,-0.1293105467047166,-0.048262650959064554,-0.3258135306289003,-0.02472220572940664,0.12059822148311986
0.13533243173262766,-0.11783824125582164,-0.2182424023702532,-0.04120922544982772,-0.06587317923338397,-0.12764755376062784,0.002759212727254226,-0.2992333882505216,-0.020214464599229275,0.08986591095165866
0.19143223500961598,-0.07483822710421513,-0.18910567207240203,-0.07441474756153338,-0.04757117904853538,-0.12111543442735781,0.03588844109270265,-0.25501110430880836,-0.014950652438341096,0.0451683590562765
0.23134343357141327,-0.0225552211863467,-0.1497858733620928,-0.10269302979725897,-0.02434818637275964,-0.10919334243799762,0.03920015768085716,-0.18737055928850277,-0.010021711596540797,0.004322686952671981
0.24204130890791445,0.031246999284410278,-0.11971165593198092,-0.12300503970199617,-0.0005359087659619443,-0.0898937016668369,0.01733237712914583,-0.11362696724632192,-0.006679820905959008,-0.026347343340441295
0.22114221522961505,0.07945398867003714,-0.08885494752062524,-0.14342009328065494,0.019309396432915557,-0.060554189083922016,0.030640520138917375,-0.04801329329808866,-0.006612786941398309,-0.04610340111307033
0.17790583383810224,0.1174640353672003,-0.0038049949398867283,-0.15327244688750993,0.03172680016433022,-0.01924632492119711,0.08481163861877139,-0.0024276960378760474,-0.011778588281575015,-0.06212467800880115
0.11959332559201898,0.14396450729675744,0.03598477904274708,-0.16349410504634782,0.0351873080328768,0.03358791566074514,0.095415812533128,-0.001752714294990937,-0.02376426640369787,-0.022335897924629873
0.058505638809580346,0.16033046005667723,0.03460604846046199,-0.1697443514814636,0.032725278967811626,0.09393051859699762,0.11424165069055357,-0.013575841135393039,-0.0428787780124317,-0.009947257163706084
0.0058657271168952915,0.16895968935813452,0.01722684333678034,-0.16412469184694875,0.01892969920858878,0.1614980903354071,0.04712697486452633,-0.05769682821654715,-0.06741117421062612,-0.02978905122217739
-0.026157529352558256,0.17133632824615247,-0.005519306557492245,-0.15569774946256448,0.004135300619111623,0.21874963116473548,0.1596105277680995,-0.10141908719546269,-0.09354196456524135,-0.05993234830781292
-0.033192646026760066,0.16673432824042173,-0.034667709350795134,-0.14735058281775884,-0.011334101821040245,0.2558362620792757,0.27604297802673555,-0.1148618679183268,-0.11616206652034734,-0.0905823763668329
-0.03533156005854953,0.1521666890015999,-0.0609749130936485,-0.1362919155988657,-0.025247260360192966,0.25856060800433744,0.21323222106688614,-0.12817968676396385,-0.1303835132814635,-0.08101032264207991
-0.029499031904511905,0.12360472801484151,-0.07846482420877343,-0.11607683863819847,-0.036327924927973994,0.2256782069506944,0.09926803342154988,-0.11380287258431115,-0.13308583214839548,-0.025235431861121746
-0.027700755943245933,0.07792277003886718,-0.06242588135932532,-0.09253458569201856,-0.044331759438858614,0.1726000027524337,-0.04018238561672682,-0.08638201608044407,-0.12374135617281944,-0.0034648216916359394
-0.03053925023651307,0.014741069734636337,-0.011637092198170223,-0.07759197617427427,-0.04986061937139111,0.10882301012325411,-0.12751447562977805,-0.046906482227248046,-0.10410887576906078,0.0023662517174772475
-0.036860480551834295,-0.06254752582808594,0.02322271915887787,-0.07941598066537743,-0.05401624300259056,0.04950780159129061,-0.17649006707602044,0.005591181399142112,-0.07698624422629494,0.00653162699177217
-0.04649476874509005,-0.14688815603471234,0.044328775999085836,-0.09739080307061532,-0.05799133978837529,0.016355802850481955,-0.1803926623440128,0.044933666572698414,-0.044722589477078724,0.07520142483725831
-0.04425384851094969,-0.22870842072693312,0.08329972644163446,-0.11961922960802833,-0.06266774327809724,0.021125306254309237,-0.06030956435788841,0.10330454341374332,-0.008339507336754573,0.0674020780029212
-0.04177045581628766,-0.297733638570488,0.09880532029865813,-0.13063404665460904,-0.0682883380961539,0.04863214349008422,-0.016351770668737668,0.09351794871722127,0.0321859066253859,0.014758162902481045
-0.03325804462819051,-0.34502749655360304,0.08858092614188691,-0.13305394320984087,-0.07430735499033816,0.09959427575600546,0.08134817561541428,0.058871174018461626,0.07656244123035695,-0.048996115796011624
-0.0022417511416237667,-0.3648045977585656,0.06323430540279011,-0.1319311704360108,-0.07955086858470427,0.1558487801563508,0.08730674038692962,0.022353854404768572,0.1250000300103388,-0.0762701219424071
0.030040158449051106,-0.3555793603995692,0.02290221163844503,-0.11176673502974244,-0.08274482395287953,0.20112158425023405,0.0655235120047733,-0.030432813428690676,0.16725508139461484,-0.10357001053748519
0.05995637774008444,-0.3203219565469091,-0.0194472583795048,-0.08541372351553092,-0.08326019255137689,0.22548506400535134,0.04163816597905717,-0.06530734151637221,0.19577668561481026,-0.11925811133254749
0.08049951896594941,-0.2655476382985997,-0.03367327857741596,-0.039171753249019316,-0.08169415304100398,0.21952968791383107,0.023874700938393736,-0.026725448984088743,0.21296103490381463,-0.12114124728743875
0.08634272495901638,-0.19962036787211634,-0.03824516571788028,0.01454732290075058,-0.07985259991942983,0.18167337307816525,-0.035154706558008536,0.006235705543072541,0.20457729037234357,-0.1082367279947835
0.08256624098892555,-0.13084858122060658,-0.0345795592946242,0.07295935800101767,-0.07994681223927204,0.11847339984517315,-0.09012379593287953,0.06619173913123552,0.1713215628447794,-0.08601425939113087
0.06743223124998286,-0.06601485218399049,-0.04886981714539419,0.11968012843328985,-0.08328030728000566,0.0478041591479569,-0.12529033750598828,0.19561571826895485,0.11954324888032315,-0.05765128373195487
0.04196256545875709,-0.009738395513913157,-0.06304923935721812,0.15157912438139964,-0.0891058684429184,-0.019133644827278255,-0.1549731433925121,0.3157406763983077,0.062153123901464956,-0.02351650309101222
0.008377741757475717,0.03536327099829213,-0.06373120181079554,0.16147132753655988,-0.09438813032676151,-0.0646370201980102,-0.10506569881736638,0.4128566595752848,0.010276422900040163,-0.013298690587808228
-0.023360488136391706,0.06811344943370842,-0.0673551600951118,0.15172804135142717,-0.0948193060275392,-0.07819096490499662,-0.021400424769621035,0.46871879940395983,-0.024420984151956707,-0.00546265639071235
-0.05363926484192026,0.0907811728947593,-0.05743211732529731,0.12401911966419205,-0.08678691176837111,-0.058746439970719884,-0.022763133943276878,0.43857152507692304,-0.04012357630790703,0.011633188966145059
-0.08082905752469008,0.1061179561980577,-0.04312393972733662,0.08780420241193396,-0.06943716173067038,-0.012798011210616425,-0.045002999088318764,0.35549647862286216,-0.038202334831237895,0.01529716492222151
-0.10204249001601483,0.10535670808078032,-0.03778934077138134,0.034588589223605276,-0.04583336582314662,0.04592140750201944,-0.07226510496369991,0.23627510122252576,-0.024874745980280027,0.01825342146086074
-0.10575739619079612,0.08256881904105773,-0.03712447403215102,-0.022239350871373825,-0.022569019643688747,0.1075770835998349,-0.11908954134467972,0.09712153641754834,-0.008958780438864462,0.01631834530100007
-0.09630603040629704,0.05888040063007065,-0.03265739891155967,-0.06989958886071301,-0.007872533618961002,0.15716393712629279,-0.0663261280357016,-0.01204340293795983,0.0009822915464227408,0.017420120467075306
-0.06796794571831545,0.032394977729906266,0.009014966309525774,-0.08283483679769307,-0.008884009461397058,0.1909140670751854,0.032091304246525496,-0.08322111193405317,-0.0007951249195467439,0.009541755391029371
-0.036517918056801574,0.004332458045973648,0.07045783022092153,-0.05148062270362873,-0.029100556133382208,0.1949095790349657,0.022494426705316248,-0.14798962482528577,-0.015641474814005712,-0.015857519480160415
-0.0023911836402771467,-0.021473081080814596,0.10024603697748424,-0.015319544139382999,-0.066889949936107,0.16912321847320805,0.10691800798657747,-0.17176173512600376,-0.04024994746915992,-0.037148996029085286
0.025965942993067107,-0.042212085556213585,0.10000789901748415,0.02611988845626836,-0.11310018294950254,0.12936252856729288,0.16675337795433826,-0.1578143985185365,-0.06761348686734765,-0.06022960018713145
0.04621153240084591,-0.05702901854161569,0.08058868898589662,0.07285909264649208,-0.16527221160811453,0.08180016010086984,0.16886417962528377,-0.1372125858793043,-0.08884968272181104,-0.07431493469731698
0.05553451090280313,-0.06727664076519206,0.058276278750655636,0.10325741497742749,-0.20536321345530434,0.036763785965401544,0.1507669547147696,-0.09119073559179453,-0.09545667114527343,-0.09307762009586981
0.051827271615390684,-0.07582597911175712,0.02511567992851728,0.11524096390257076,-0.2275403697397787,0.006269915538139825,0.07884795087719979,-0.05675521066422066,-0.08156682095427085,-0.09746219465790976
0.047451930563530004,-0.08558967287879117,-0.0059881660019800555,0.11504438003276195,-0.22768207626525971,-0.002523461841764539,0.0202872366802794,-0.044727802470093184,-0.04575569788134189,-0.08101635832376912
0.033937054716817114,-0.09789552203144904,-0.028537905224512165,0.10236792722965624,-0.20649213544265646,-0.0038125965396712414,-0.019432356362103026,-0.048067917645682884,0.012904264587582731,0.008291327256027072
0.03041737561459226,-0.11154656945951454,-0.056713581355878964,0.061210715569533725,-0.16861096070545023,0.004770269257705526,-0.07517086195281354,-0.040643722012739074,0.07545152691339345,0.033909558798188556
0.040373599812510326,-0.12313357793852807,-0.08047144264609798,0.01326914679778834,-0.12076218462582562,0.012510895130970279,-0.1606956830907751,-0.014147508764977957,0.13405209065166926,0.033293874930551144
0.03934517514330556,-0.12854548563224383,-0.06531182227531063,-0.027680540953227573,-0.06986022623680839,0.014325054489581369,-0.2658131169180935,-0.0014173365154263404,0.1705560035632335,0.0018488320943295094
0.04494133044596581,-0.12500197813196132,-0.05160557033194195,-0.05084067889169157,-0.021857058680824992,0.009479347509141978,-0.23101907123307,0.025492821010941316,0.18486651954057057,-0.0461927570992738
0.053563887407481074,-0.11264728513870087,-0.008093389110024652,-0.05503848313793624,0.018439494687101522,0.004971027814484164,-0.05777992303677691,0.06945926228714824,0.16886128087605454,-0.09781320909953153
0.060862698238871256,-0.09492769194173238,0.05192148130818221,-0.04346963211762888,0.046929204639232024,-0.009793194470734356,-0.02952263248644127,0.11111749387844616,0.1273242646413094,-0.11818795378596511
0.07160466327860865,-0.07751464875093189,0.0873985590012273,-0.008378799639867774,0.05980226353423761,-0.024502364831617957,-0.007172204208398189,0.15765394684788633,0.0742094118841212,-0.13867384762383486
0.07852346774983575,-0.06616886774630822,0.10175771412142404,0.03174161936427161,0.05366952768820627,-0.04063931163449137,-0.023512802685484446,0.17970308054790401,0.019013440922464094,-0.20536380497312537
0.0817629613422633,-0.06439923944727727,0.09659273976243687,0.06819654320320775,0.026407650276850433,-0.0529358551855454,-0.06101340832435217,0.17206390525506468,-0.022876508624804275,-0.21800399216466654
0.08200940249338586,-0.07188524762421955,0.05591203554464298,0.09337685937458526,-0.0215263488897953,-0.06416164455009626,-0.08205569192108572,0.1264733202780517,-0.0466425158307674,-0.2013888774774269
0.08103232773103838,-0.08437160005012834,-0.02700910658168337,0.10811797311972171,-0.08588074425786617,-0.06351205724129128,-0.06531609626346674,0.0736994689839707,-0.047385017685133514,-0.21267316695205504
0.07688354457889138,-0.09519348035848868,-0.11407307658110627,0.11302744191924957,-0.15819193215845384,-0.060043507000533486,-0.017950591730843304,0.03001254115416264,-0.03435762459075129,-0.20455441041435957
0.07866541490778885,-0.09792052603312988,-0.1839801890341234,0.10745259611856614,-0.22669244188511414,-0.04122733910489851,0.04877134207290229,-0.009890742624329991,-0.018038229082243482,-0.13993986314446485
0.06902880159069909,-0.08906759942153618,-0.21041140339106032,0.09714754748722271,-0.2785940827818254,-0.011906106863251834,0.11728389203332698,-0.0785707326451956,-0.008579400137519821,-0.1361322332529037
0.05189676266293981,-0.06969356695310122,-0.22411435787883144,0.07699121354125292,-0.3031808937191448,0.021988754057716164,0.15114893842945876,-0.14994364104297783,-0.011929053607764232,-0.1371627693738218
0.03513843135253621,-0.04513988417186474,-0.18994938153119814,0.06540638699350332,-0.29471343594046545,0.06055747068025355,0.11525232967200433,-0.19617834809689896,-0.027389870554735695,-0.07770859278644912
0.01802098623371565,-0.02297122148822467,-0.1275892190267821,0.05489168526679788,-0.2541516650852134,0.09690742229786684,0.04170019102169567,-0.21907454800883197,-0.04752082972979631,-0.08890747267420165
0.0062938220303764445,-0.009931858668352793,-0.06736499143935425,0.04255380432511199,-0.18913634938296955,0.13044431481951604,-0.0165423590554984,-0.200630960479022,-0.06057865194777809,-0.11634643497706805
-0.004809962676058278,0.0054882943570188445,-0.001230539568431028,0.035855020579550284,-0.11226618211132229,0.1534773356775228,0.05344976615071767,-0.15871457116691853,-0.054792395695973814,-0.0569932768712145
-0.024692957702554568,0.00024062882131912523,0.03445201769751619,0.039319859645329615,-0.03818121296674101,0.16699858974860185,0.05153823873480473,-0.13226517328541834,-0.018116979700740433,-0.031472504601696046
-0.0525551671934927,-0.01814907399334402,0.034197735799627295,0.042468651785009456,0.0198036378741097,0.16792291475095944,0.009393223591455956,-0.08500315985798555,0.038830364927474194,-0.029404781127859984
-0.09598323677841403,-0.040406215716362576,0.038353135038271,0.049959562086295456,0.05272460450172679,0.1512606608302933,-0.021940875999504134,-0.04440232086979701,0.11155984921107674,-0.034641724687292055
-0.14307742141033666,-0.053290747290823545,0.03609109137461277,0.06378838753604807,0.057925745349627245,0.12004073271645188,-0.09174001580297562,0.0005319736664167966,0.19195014021682086,-0.013773984678051973
-0.1869547342569467,-0.055484475395813734,0.019743991191008954,0.07063164492294573,0.0393990407633848,0.09058478413567922,-0.005630832667710715,0.04112815422299007,0.2534516613208974,0.00021946312639873657
-0.22870806406442887,-0.04154742767856965,-0.00017404816371693888,0.07496457099018453,0.006330829799632255,0.0694104751878034,0.1394103782176085,0.0654086622524038,0.28255905187723995,0.06211294087884659
-0.2689188146303213,-0.01879926949798933,-0.0036305257043132803,0.057275232299773673,-0.029780403467978958,0.0512304676878368,0.12068912403324654,0.07530894283019418,0.27484812539784687,0.06560594471277925
-0.2875876886518843,0.008590218738174815,-0.0028141433395239297,0.03242798530405355,-0.05854157412648898,0.04369199133635812,0.12005924576902072,0.09597469706381459,0.2319230195670045,0.0598181225839641
-0.2767358108171004,0.036418255587264414,0.009785875735217442,0.004114911892555215,-0.07348252461011352,0.04588254347484381,0.12007411508580819,0.1317956316727144,0.1647879992518902,0.060877279634736006
-0.24337181109603062,0.0619334088822999,0.0759136301129906,-0.006499192293056446,-0.07335212023352682,0.05184941599636162,0.09010234864026065,0.14228685445625577,0.09747246712920311,0.11279775204048259
-0.20818065273035716,0.09415788720838011,0.1293195456203829,0.00093237721625856,-0.0615712272961742,0.050213124100531865,0.05089307241665697,0.12169480220442985,0.06299866515588814,0.14233857917174433
-0.1659378767701627,0.1163081440635685,0.15351904445479522,0.021004241007456324,-0.04422510529306701,0.038784833721818145,0.09550423384920761,0.10128664372033616,0.01164976611051773,0.12952369941004255
-0.12594432279575704,0.1310362050951388,0.1490398913005676,0.06085253643710748,-0.027468655212576864,0.014052054952166059,0.10678498749586998,0.09158298842756259,-0.026997489991129525,0.07535438130996243
-0.09456998745882371,0.13433529636738403,0.11218568051593342,0.09815646284174118,-0.015321432069687599,-0.02093414573639276,-0.01522549500791734,0.09003500126127498,-0.05309620726127354,-0.0006657667538963394
-0.07293652403502189,0.14073718608447167,0.05156669176927459,0.13156436671279578,-0.008571547908161085,-0.05483455126784532,-0.11410752873943321,0.08900191235854021,-0.06568577718752273,-0.015018179909629436
-0.0625219710078924,0.13764779957035997,-0.022130177223735607,0.14710972286630028,-0.005049265733956561,-0.07803543523894378,-0.05921959246909746,0.10933342645114912,-0.06162346255927467,-0.06498031166643504
-0.06729185798263154,0.12334657505668795,-0.06381241865570082,0.1513302770393846,-0.0010581316443419202,-0.08700760133528955,-0.06313222799896459,0.10206686991634241,-0.05198817637793457,-0.15466159396635
-0.07783084449766411,0.09799276628003932,-0.10922242099782459,0.1280889859611304,0.006608807393459613,-0.08455827311033093,-0.09959885832810644,0.07397856629095712,-0.047059005203820135,-0.15415465796623476
-0.07821772839989245,0.06394947031150572,-0.1267471050203205,0.09102410269320793,0.01882911338686578,-0.07138150699592462,-0.1864282152628984,0.03718274243809278,-0.05341065385310597,-0.17177225527670256
-0.06734926399168738,0.02554185462392531,-0.11356174362028848,0.04219868021505538,0.03322398323439552,-0.05241460670164563,-0.28206967451045334,-0.012003686356093096,-0.06176550527288257,-0.19508553943528745
-0.02491890500805637,-0.009279975724151495,-0.0860840157398471,-0.011240954819501204,0.04459768416325349,-0.03657926536296063,-0.3122814284411335,-0.02709161845507957,-0.06769571421952245,-0.18108533382246234
0.036036107211179634,-0.040228402036752826,-0.0511021811525322,-0.049410497827442126,0.04668413186160002,-0.03628582865532319,-0.23735655265618555,0.006702321505570496,-0.06790606555828264,-0.13116257334619935
0.10044645785722715,-0.06350587772422328,-0.014029443244358137,-0.0454914636948358,0.03457849474018479,-0.052644784989753494,-0.1660504926154345,0.015332693871981346,-0.05978459096473747,0.017970550654503644
0.1584711267936106,-0.07262904567400995,0.017472639320342376,-0.01843361272070732,0.006892451461164929,-0.0886121529026241,-0.17465784613553093,0.014125485532050498,-0.035856307237637,0.10578382686279658
0.2119287283118235,-0.07101931102844583,0.03807928187713785,0.03254111624623039,-0.03325510617129032,-0.13575747193608478,-0.1803437608144233,0.01887571199985808,0.005724954401284035,0.15953832089729442
0.25755047901827477,-0.06153699402867777,0.07650005230443173,0.09508139092927359,-0.0788400088344325,-0.18080697927898332,-0.07133514192649268,0.028610418513329593,0.05343953389616802,0.2486855234621801
0.2791871828179581,-0.048213461149180216,0.07382194921781808,0.15701458347938416,-0.12091506781644346,-0.22047368516738214,0.01010355263851161,0.026663423547831272,0.10233655630768787,0.2873102684855844
0.2760966154257182,-0.03537351720545196,0.048302572772286397,0.1952943902563845,-0.15121169998461048,-0.24706336465317766,0.025080135486511303,0.025816725379046942,0.1413133294364017,0.24698496518784027
0.24950028074003763,-0.026806932939069387,0.03290343924058593,0.19897785190120976,-0.1643872229379318,-0.2533883860746773,0.07461114303121501,0.04373585851261106,0.16411496178210438,0.18122818619372613
0.20277815915521508,-0.025087054626611593,0.006749798786824103,0.16679347287612611,-0.1591830258835311,-0.24008464281546774,0.14256323543886468,0.053516144686816224,0.1676159688416943,0.09991382755349922
0.1287733168556514,-0.031081165398952917,-0.013522642692540816,0.11178995207110289,-0.13832049275126548,-0.21203132602439376,0.21863529525726974,0.03794118911391663,0.15110562354472876,0.031908474768513405
0.05254332704672167,-0.04370230332930216,-0.01827870010584645,0.04596723022225811,-0.10749285200631839,-0.17965459659638985,0.2978858905023248,0.052789527323665444,0.11695598182069249,0.007117992360496244
-0.017057350245608116,-0.059990619568610265,-0.005674822763866263,-0.014004062067470357,-0.07398260708069858,-0.14114101434628887,0.2961360754947252,0.056962248926141046,0.07501090209072345,-0.05391826737686738
-0.07520176799885833,-0.07561753141516232,0.03083525847829271,-0.052578487592381935,-0.04522341457178718,-0.10444247124677235,0.20580988029403927,0.04237501841535503,0.03775265826538649,-0.12762024645004552
-0.12062192019816692,-0.08582284634955854,0.0843294576550062,-0.05155373118139705,-0.027338456129192987,-0.06684887220179084,0.07108052591460215,0.03469040108617771,0.0167729297735552,-0.1799394543076538
-0.14199174568748324,-0.08663528609444293,0.1238837454650285,-0.01850816002382909,-0.02366473949191943,-0.030563597641517302,-0.06537097626967243,0.02932938630186102,0.021490936665332572,-0.1749789905850035
-0.13543995045169185,-0.07606657350234196,0.16675799575204134,0.03707317159223571,-0.033552663703646006,0.0028619183580189597,-0.13860974124353712,0.04811044384403146,0.05365489479485101,-0.14123382779261456
-0.09949572319269236,-0.05490285303644274,0.22295028066330003,0.10988525733310359,-0.05200796459988373,0.039086713753289926,0.07094178732507717,0.09703388261551768,0.09482186755748905,-0.08925421958435611
-0.07107284039799266,-0.026801575937609495,0.24127804921813378,0.16423996289065151,-0.070665553415927,0.06952861423898303,0.10473827809554023,0.09633011831242977,0.13740678111044224,-0.06863238972569216
-0.055081645356313776,0.002386470999619512,0.22737211490834805,0.193093213864081,-0.0800813654813467,0.08585078301750255,0.07847140203439339,0.06841554075010163,0.15955373661359273,-0.06572290724147575
-0.0518596627055861,0.02591108769510377,0.1942451906459204,0.19210296592728457,-0.07267828618513676,0.09275593042151804,0.04138853827851135,0.04152067736437785,0.14011498287311172,-0.06730553637547024
-0.06287799276486705,0.0377138119365591,0.1530085379108375,0.15509869415019786,-0.04529698401880758,0.09364813778601513,-0.006616017233989014,0.0035845325861694893,0.08347544097466869,-0.07933397536345525
-0.08041269196127909,0.03395177565502235,0.11138540444510822,0.09036279816319275,-0.00042722192861024765,0.09570807368604581,-0.012115129715701348,-0.013003624042432566,-0.0003988978584295003,-0.018521235266350546
-0.09419908905963183,0.014112019514270704,0.08313395131245747,0.008649596165893579,0.05425765339590804,0.10254651076863185,0.008256609605114255,-0.03398794854519487,-0.10095531339713217,0.03362854912625164
-0.11051511415276288,-0.018583644667689244,0.06330140847092751,-0.08184267462166278,0.10781240050503438,0.10787688481641618,-0.0014007251391516054,-0.07369456728396667,-0.1909299531258601,0.03989265819194489
-0.11349086765630663,-0.057697601473891504,0.04205843850768149,-0.17333989495487556,0.1487382783843688,0.11537411931632238,-0.011048464729714606,-0.08299734799396806,-0.2551548746080864,0.04601878171288027
-0.09780573298850125,-0.09503905290038095,0.025500472325257005,-0.2373025336014719,0.1677830413628801,0.13044315145467542,0.006141889739677541,-0.05943292611466147,-0.2769447890482628,0.11631384915622399
-0.06798987951228558,-0.12278228968657166,0.0059910325779262705,-0.2732891340080121,0.16263890805301423,0.14853607748366143,-0.0038966127627779387,-0.02928663878290449,-0.2452720002665186,0.21261053386449577
-0.045221773595902834,-0.1356454080494886,-0.021035674443119025,-0.2731169155193765,0.1264695847210623,0.1506115044125731,-0.07349072204285902,-0.03463704530244849,-0.16859545281591645,0.23738745427819377
-0.02908030140881288,-0.1323989788393479,-0.0476211552252301,-0.23948168158698172,0.0725301408372018,0.13248510307340233,-0.09207670184672676,-0.053864451654595455,-0.05768499351859528,0.25023832667161067
-0.018163752948479685,-0.11612412525412193,-0.0597147470958545,-0.17778397195902723,0.007555281673916812,0.09481366985642976,-0.10892482216114494,-0.07351874579967096,0.06929285445078168,0.2996640244200954
-0.016085447220274527,-0.09305932961113826,-0.06241377258875498,-0.10814714530951032,-0.05808341865838039,0.03813519500584842,-0.13512592938972698,-0.08812820311720027,0.17531039569411758,0.28780162976529045
-0.016459900715181577,-0.07041564999216923,-0.08345057030275183,-0.03226648021523808,-0.11516676702446692,-0.031154595310859807,-0.13424954283557136,-0.10362415891208757,0.24758841872065906,0.24015652164519558
-0.015444864529193497,-0.05396354505814566,-0.09336266929111275,0.030490154726539244,-0.15710707253153833,-0.09673874724221362,-0.12312773676084215,-0.12125874234014282,0.286010395076371,0.20155692142194354
-0.0009683405604889277,-0.046287150334505416,-0.07490337276814862,0.06599073746740361,-0.18035310656726708,-0.14975435811766208,-0.11047108873554973,-0.1195592859335043,0.29358047750763644,0.17511704598671277
