subject,stimulus,1,2,3,4,5,6,7,8,9,10
1,0,-0.0006358544855382333,0.00042140387805609776,0.0008106158249565079,0.00034161821357494557,-0.00040842432526014413,0.0006571210689985441,-0.0005440366198285298,0.0010084094475163127,-0.00108805864877522,0.0005924564330150313
1,0,0.007810103691573398,0.0107656888465925,-0.014839567295034618,0.007389750362564313,0.00108634140339892,-0.009286913250030398,0.013933456422659826,0.0017539615625859026,0.01814342723207399,0.0042155108200380926
1,0,0.009234658814437509,0.010135186735798673,-0.02130122360103302,0.008236166480870517,0.0036481696647006363,-0.009729019574126873,0.015560983748539247,0.001632297364973098,0.025836234346636025,0.00855755500337331
1,0,0.00520018005265076,0.004152831253040814,-0.01777214694447859,0.004764286651234261,0.004604603800128985,-0.0035889201692294714,0.0005647375429084726,-0.0045476724387451956,0.022694787904129814,0.010579757209533287
1,0,-0.001084616628647509,-0.002295289498215668,-0.007141037956424022,-0.0002863103823263224,0.00311865833629252,0.004369855123640671,0.00972385437839041,-0.004090046506036126,0.011373370347101341,0.009540544898250281
1,0,-0.00621660657114957,-0.0061229835211055895,0.005612379103622462,-0.004367160011328518,-6.593287506262074e-05,0.009518138054492664,0.006982649058283291,-0.0060129692027482765,-0.0035592967787776014,0.003833193341573593
1,0,-0.007922574359250133,-0.006360368003570413,0.015379527800259103,-0.005922956240206734,-0.0033471854085849856,0.009208660257288715,-0.008616864337742643,-0.0026203083723449917,-0.016527747170398642,-0.004933005726741586
1,0,-0.00575629054312324,-0.0037787152402862277,0.018622152948227173,-0.004709943682611045,-0.005173690146753963,0.0037442328797347916,-0.0201120110998284,0.0011847218939807223,-0.022681960673020966,-0.01312535993402758
1,0,-0.000989310432480657,-8.148146983583765e-05,0.01440391318258441,-0.0016302612075536212,-0.002293149720439898,-0.003969555028691062,-0.016607823759651308,0.010033528792663579,-0.01976450624373051,-0.01088444624756145
1,0,0.004131088281332101,0.0029874640341314086,0.004558735114621332,0.0017787121575537955,-0.002555703260042689,-0.009949282906791418,0.0058457377323825,0.011844084469946316,-0.00912850525353366,-0.007679926083077584
1,0,0.007384163414073572,0.004309156732765487,-0.007026927348660885,0.004019737323172812,0.0003754449823074761,-0.011127652906014798,0.010143648711394178,0.006467498657213762,0.004753657016872545,-0.002593315594025219
1,0,0.007451124786428984,0.00366445278318096,-0.015831950848414284,0.004262171948408302,0.002736448206884744,-0.006857102173580483,0.0065752403712920115,-0.0034420908376684334,0.01617798926921368,0.005265785212857584
1,0,0.004378909299016869,0.001627762310447891,-0.018386326824344528,0.0026673429599878328,0.003794173790896548,0.0008075693748299368,0.0017525050219838547,-0.010187365657420332,0.020639126136009458,0.008259011871183814
1,0,-0.0004997627790412416,-0.000788447515533843,-0.013628354186437548,0.00022882524421568724,0.0035098961537770833,0.008170682805814332,0.0004140638698778095,-0.01341832741839507,0.016680470561836414,0.008228167626198834
1,0,-0.005146798383464228,-0.002568015247936999,-0.0033828349676442966,-0.0018155045907359553,0.0022773428082364946,0.011744864714767217,3.0201360534181243e-05,-0.0101796911545348,0.006359744066835557,0.008962443837885243
1,0,-0.007676224148391859,-0.003059530522861633,0.008298199035950474,-0.0026631340920197748,0.0005472863815533766,0.009937356154088818,0.005580806195065324,-0.00029924654551643614,-0.005799226817567671,0.001235711642302294
1,0,-0.007133925436428693,-0.0021834647400511137,0.01673342720814924,-0.0023012263402226035,-0.001356384792743821,0.0037347777555300525,0.0035001395220325216,0.008457011431102536,-0.014830004409729541,-0.0002571450300961854
1,0,-0.003852075901024105,-0.0004309884449932731,0.018518260391626476,-0.0013351000234779055,-0.0031457680110327747,-0.0038958560078263317,-0.0019769642981194357,0.012159168073114155,-0.017402796170651307,-0.007607105975400239
1,0,0.0007746925783633048,0.0013461112220497966,0.012933334571180432,-0.00045424371095154065,-0.004382307665088912,-0.009501659395385676,-0.008658074575709987,0.011437431420454834,-0.013066101008376409,-0.006972246801469599
1,0,0.004945447538414228,0.0022994590342531526,0.0022476688704102495,5.967808554582733e-05,-0.004461155164091306,-0.010742908723343568,-0.008962717753403664,0.006841276190883641,-0.004167897857653237,-0.005321962865838495
1,0,0.0071852179046034085,0.001980094555701519,-0.009215354493807075,0.00043212733940462645,-0.002890101829578544,-0.007348484038119464,-0.01443725841058147,-0.004765380984009214,0.0054041086925749335,-0.003884714435234769
1,0,0.0068221476866966784,0.0005911018781508411,-0.016858654984369,0.0010544508200550989,0.00026819923272283975,-0.0010714279152848273,0.005352823104806986,-0.007655854640910778,0.011986959342944218,0.00011044693518357693
1,0,0.00409444502593598,-0.0010660085600677721,-0.017700041237372892,0.001987861338778036,0.004106538376471298,0.005222983953949267,0.015301611744034575,-0.008723304737138693,0.013563023651317209,0.0023988734119791905
1,0,-2.1017837661593408e-05,-0.001991747187763273,-0.011580205678815795,0.0027265287338490833,0.007032787879516883,0.008858347414027292,0.011455741918261361,-0.0044376702509581764,0.010258771204409984,0.0044740142075656315
1,0,-0.004123185478295588,-0.0015702059200583748,-0.001171827678241759,0.0024603403018453327,0.007435062898082433,0.008468644411370633,0.0031400242532683654,-0.007445778945596852,0.0038780361064070425,0.00673693594454967
1,0,-0.0067847471565741415,1.4338915804804632e-06,0.00921762160323972,0.0007116065186928746,0.004571023844528943,0.00450399671621312,0.003912109755599793,-0.006227389660011264,-0.0031005746879163233,0.005321613592283846
1,0,-0.0070055677626989065,0.0017472522378077708,0.015505295664640394,-0.0020964510466596146,-0.0008179975856287922,-0.0010560331509958084,-0.006824830999780751,0.0038028998010783115,-0.008481864523422557,-0.0007969627073823837
1,0,-0.0046152557005762354,0.002467831095969297,0.015500709150779782,-0.004618204200194601,-0.006596341918727807,-0.005647715276578772,-0.019304505454315325,0.009069142494243718,-0.010892189692062855,-0.00111569018749193
1,0,-0.00043495861008676924,0.0015195523193329715,0.00965435524779608,-0.005268397923380925,-0.010102180534369317,-0.007307159312113599,-0.0026057258871154698,0.014543903947089544,-0.009881471093163502,-0.002480132278919425
1,0,0.003949009995109181,-0.0006857971758650747,0.0006485948893445161,-0.003252057391624636,-0.00942646959618642,-0.005541048400141764,0.0066685858677932785,0.015085671009194362,-0.0058181512777230205,-0.005056526032537229
1,0,0.006774991584836331,-0.002840261120676785,-0.00786413138957051,0.0007526580105905371,-0.004459493856254159,-0.0014685599854699328,0.003638674721810142,0.0035480675603710957,0.0002069356813213005,-0.0021286541838258324
1,0,0.006842776272888954,-0.0035180325594922996,-0.012762102285311158,0.004799618839216436,0.0028743795016006055,0.0028152305989558295,0.0005478401076112814,-0.008520676254088673,0.006460715251262814,-0.0014024923098755067
1,0,0.004079667261141314,-0.0020952982151946752,-0.01258488381054329,0.006723682615228021,0.009385372587489671,0.005309111937974643,-0.004106304685505271,-0.015080502385830473,0.010824943385351624,-0.0007959469057209484
1,0,-0.00034585397841582224,0.0007933267757996223,-0.00790810954874205,0.0053999474687923725,0.012066131240865918,0.0050536495656856185,0.0067721538840198455,-0.01647251186407902,0.011415790111884472,-0.00033078565954503447
1,0,-0.004476605909983199,0.003572095844246153,-0.0008991673731589961,0.0014230152389641951,0.009524856708463663,0.0024848492729305917,0.00680538691596781,-0.011321971956960207,0.009961884561910503,0.0002899247211798315
1,0,-0.006442685146213213,0.0046236687423728984,0.0056859451741618485,-0.0032111296959981247,0.0026924921968388116,-0.0009399838925551609,0.002449472303223215,-0.0006118030928777684,-1.7870293964164138e-05,0.004018093767916571
1,0,-0.005372725796362447,0.0032266198486597753,0.00959401243869623,-0.006211363463389096,-0.005551505701477302,-0.0035687682554764073,-0.00848650865893982,0.01082015375263854,-0.008239721137435669,0.003574592266157691
1,0,-0.001865700173344796,-1.0648981962989593e-05,0.009800922532300152,-0.006213044980709913,-0.011647877341450329,-0.004340038003223232,-0.010086595814529664,0.016236222637394885,-0.013619201013627963,0.0036816017383174775
1,0,0.00227394614852888,-0.003453688871666967,0.006663248500153751,-0.0034186308298511255,-0.010429702508165278,-0.003142510794755481,-0.0035183097044124384,0.01584196521730849,-0.013443053253354847,0.0007911403622556432
1,0,0.004948918067850936,-0.005306769004301525,0.00158489846005838,0.0006446194754924021,-0.00881223476440994,-0.0006810022572021154,0.007445862245796636,0.005104361023664557,-0.007415925722530233,-0.0010841705494000378
1,0,0.00486362952795044,-0.004563691762256174,-0.0035591723001996032,0.004020867874175532,-0.0010568965148505217,0.0019498727897387842,0.007367277599380868,-0.008388966722406,0.0019344715054930072,-0.0023676154344627748
1,0,0.0022046233620861256,-0.001533129670834536,-0.007034716412939463,0.005317987766136702,0.007016991592064952,0.0037209425081150193,0.005824557023406426,-0.008471394220854408,0.010385270296532698,-0.0023906453606784756
1,0,-0.001477519309224762,0.002330311208905955,-0.007773406849784862,0.004275437050642891,0.01196409483226204,0.003995188290443375,-8.844400145263654e-05,-0.0033495367482314444,0.014109391327014153,-0.004659648049196843
1,0,-0.004126337536649663,0.005173948943946769,-0.005705075757726721,0.0016982780458039677,0.01166609760811095,0.002690643703970881,-0.012349327315443538,-0.007402338584592703,0.011570165575051595,-0.005669558269212173
1,0,-0.004302394743361959,0.0056554471093189194,-0.0017726708401321907,-0.0010978030355706433,0.006254899571655723,0.00028516340117805395,-0.0010213813130665707,-0.007893435877837092,0.004197256703860271,-0.00029384339948960173
1,0,-0.0019516911393968309,0.0035455153192189815,0.0024322939757105357,-0.0029752274946644604,-0.0018912041432309523,-0.002339784181679808,-0.00473527744234906,0.0008938338585394978,-0.004454421081751622,0.0008594204934474401
1,0,0.0015924489204388918,-0.00022449832780554983,0.005311154129402066,-0.0034398154180662346,-0.009148995137072567,-0.004196576530589465,0.0024635038460681753,0.0039797572293930675,-0.010528596290621256,0.008621398773206813
1,0,0.004356869909845818,-0.004009575190248639,0.005908251182274569,-0.0026965397202864737,-0.012263819060539657,-0.0045461571056279225,0.003584644826510675,0.0011544827093180874,-0.011673444172569067,0.007292714885834058
1,0,0.004800818828682549,-0.006142699287223702,0.004262983058561734,-0.0013524441481145679,-0.009849944362923687,-0.003181289118686567,0.007018897302655617,0.005057783680351182,-0.007940649206767288,0.006406869434520655
1,0,0.002626444163150386,-0.005610721115770362,0.0012960354901374292,-3.846160330844495e-06,-0.003047059062891914,-0.0005267711948385309,0.004400006887387439,0.01030384674649212,-0.0014543592607943229,-0.0003487153156578296
1,0,-0.0010900807205351923,-0.0025075410313054043,-0.00168903081943448,0.0010354306972974326,0.0050126390132216505,0.0024904716820759376,0.0006495794542673398,0.005943324216817406,0.004811776355459537,-0.00915094525723362
1,0,-0.004477629388367117,0.0019126536619658943,-0.003605022347435373,0.0017427618880313139,0.010674468044325284,0.004765673837938094,-0.00400590280130164,0.0013088762249527962,0.00842312182560335,-0.011078255990932836
1,0,-0.005823236069024207,0.005688096090154829,-0.003974897770925174,0.0021948722035362153,0.011441336932131563,0.005419917052262849,-0.015301963564925644,-0.006335742317434172,0.0083714982158397,-0.005207715972289101
1,0,-0.004409834930760682,0.00700945765422439,-0.002973920764518708,0.002354834935176733,0.007062500961769591,0.0041285339085258155,0.004441524268615428,-0.012842117134884567,0.005191169562045217,0.000880527668360615
1,0,-0.0008488092313023314,0.0051209071101743974,-0.001189765460388997,0.0020123585174153923,-0.00042860584747107393,0.0012516703704600581,0.007179669375351391,-0.007910874320062811,0.0004657385302154893,0.005814969298758882
1,0,0.0032209806348411623,0.0007782848675060056,0.0007025353041515219,0.0009402387536560125,-0.007670369387856271,-0.0022709608083295012,0.0002394609710023416,-0.002183174473860268,-0.003902885339763136,0.007304679020622821
1,0,0.0059078053591561505,-0.004038443055500023,0.0021703183481770133,-0.0008286950217867518,-0.011459085016175222,-0.005217988040043117,-0.006057159535798644,0.004616077503834049,-0.0063548643140798455,0.005720165223569389
1,0,0.005955915630203328,-0.00705874843275855,0.0028923262363875183,-0.0028133351559751886,-0.010139008712679497,-0.006485308140595479,-0.0037013881706378323,0.006758592987963845,-0.006130977905516605,0.0028274670012201496
1,0,0.0033432020113145534,-0.0068332222813110395,0.0027259630417451838,-0.004172565719615273,-0.004332149808598276,-0.005471622618730269,0.004126872065688868,0.004236230724166354,-0.0034948926946477654,-0.002508495817033616
1,0,-0.0006994684253473874,-0.0034526498648107316,0.0016848166237928967,-0.004089613987616564,0.003323539362105899,-0.0023352543074559844,0.008912807762201113,0.008902781235922428,0.0003438311292468359,-0.007577215393929785
1,0,-0.004280881551428645,0.001488179618465473,-1.3019876939982695e-05,-0.00225974721583748,0.011853192878810037,0.001968456307269724,0.005409425241154833,0.003031999817163855,0.0036797551050429616,-0.004634652872316709
1,0,-0.005780566872255039,0.005660307524692086,-0.00188023236679559,0.0008172314703409019,0.011020354640152859,0.0059172586081306785,-0.008344266697180205,-0.007567958502276044,0.005056659583440357,-0.003951288963662171
1,0,-0.004640267595339497,0.007124533323389354,-0.003210102964637171,0.003954003036342351,0.00759101270046533,0.007909292568460815,0.0022791923110156284,-0.010152903540020082,0.003982041720731919,0.001204267608131752
1,0,-0.0015924436420873122,0.005262839442629211,-0.003324439005675365,0.005785852835257677,0.0006852211795600539,0.006903520332979837,-0.0012983968794664975,-0.008370585612571558,0.0011865795546102786,0.0032259131151933153
1,0,0.0017821907974804728,0.0010623172950056366,-0.001947091658880345,0.005420507324390251,-0.006519065091881259,0.002982931458886303,-0.010097370316378728,-0.0007440103358961043,-0.0017810645198309998,0.003601822499036797
1,0,0.003897883586985499,-0.0033950565186777856,0.0005158580593071975,0.0028806097480298764,-0.010829777514257628,-0.002469897019878172,4.9750550051464286e-05,0.007837542560614454,-0.003415964517113628,0.0065590565801312145
1,0,0.0039399367353119535,-0.005988364121068495,0.003017525821418761,-0.0008941253185014045,-0.010494312327857558,-0.007208964021957334,0.0027571975952653247,0.011758526104113244,-0.0030584581800123106,0.0014006433608275723
1,0,0.0021879147249835806,-0.0056150514407081655,0.0043026824989635185,-0.004466908741986646,-0.005865039808972799,-0.009103200357942043,0.0035651161184828643,0.0065340943634611195,-0.0011643445800129904,-0.0007443246847640646
1,0,-0.00022891852078198713,-0.0026884405864197104,0.003560962434130965,-0.006506116200908766,0.0009381980169614146,-0.007220801770339546,0.002741628139203957,-0.0007935411336183279,0.0010655633498888367,-0.0015153620264442994
1,0,-0.0019752344054718724,0.0011742110632582553,0.0009535016315229904,-0.006276141323699611,0.007089552728057981,-0.0024045872306732597,0.0008836902701329682,-0.008472316064756366,0.00240952768747198,-0.006986798501631286
1,0,-0.0022159920137045613,0.004057983482055726,-0.00233037320531261,-0.0038408184279566833,0.010272435770341691,0.003076549811591194,-0.0038291171110802756,-0.006440751264750166,0.0022575274418648815,-0.007522518476674613
1,0,-0.001035460716886062,0.004720129072427444,-0.004609623761590348,2.3067202328669895e-05,0.00950816465431481,0.009176259312962586,-0.009460039346825024,-0.006890555362314361,0.000839693047102447,-0.0030487150498467604
1,0,0.0006497622920817076,0.0031158557641134616,-0.004614183887897045,0.004094700606865911,0.005341270383165431,0.011737202216650242,0.008565813067821313,-0.00385589137833428,-0.000992130568066233,0.004300114552531613
1,0,0.0016541635234062233,0.0002741576863273472,-0.002249989569287295,0.00704638180503553,-0.0005469456727318817,0.003650615474822397,0.011364122198132862,0.001878645822591206,-0.0022504728166976564,0.006223999554746696
1,0,0.0012571795668565517,-0.002323404511086813,0.0012666187316323488,0.00779060370931152,-0.006036853434647314,-0.001295020985983114,0.006761492534768628,0.008683105923558355,-0.002302113286945516,0.006969921281869599
1,0,-0.0003356418569869329,-0.003491911553236095,0.004048323543834756,0.0058189788478644365,-0.009302777850822522,-0.005694581550603293,-0.0032710106174800783,0.0095744555981592,-0.0011414910278753384,0.005007940314779373
1,0,-0.002108987362132023,-0.00285134658348389,0.004603253876231552,0.0014814916508223707,-0.009367366946145771,-0.00763024728582559,-0.011006115860246888,0.005834032151031818,0.0006488084543618682,0.0012864322266006442
1,0,-0.002873029786208429,-0.000895938860749884,0.0026869284651968306,-0.003930200312057963,-0.006346544344803531,-0.006472670073824521,-0.015219940309110051,-0.00010381930389953176,0.0022002873559137707,-0.006184343958492958
1,0,-0.002012483854048531,0.0013392880301329197,0.0018973979794281429,-0.008460257804601693,-0.001340418032288804,-0.003071680173608741,-0.017247655182633086,-0.004114941799615257,0.002766712070186755,-0.004370017795865996
1,0,0.000134927214325667,0.0027976169949705362,-0.003551915662434859,-0.010164734701717202,0.003974973413071018,0.003309981833139804,0.0063837736788056815,-0.0064242935377880036,0.002058551718443593,-0.005518425325793245
1,0,0.0025029888965024953,0.002843957602189272,-0.004843176402177233,-0.00797410151562188,0.007912065574246972,0.005920671386295683,0.01916662774645461,-0.007501924779613411,0.0003748668296391299,-0.004347306009577268
1,0,0.003943921671521448,0.0014711592340854525,-0.004149308991203338,-0.0023327160461179028,0.011782043560348416,0.006307939722825679,0.02165926216261625,-0.004374684160763101,-0.0015184441668385591,-0.0024899912209305126
1,0,0.0038362213853191346,-0.0007385971270751259,0.0004228697283598091,0.004767455792401133,0.007668217442109403,0.00215172385295739,0.013940587684696408,-0.0032209257542940113,-0.00273345877985303,0.002575343134020139
1,0,0.002252929946981006,-0.002824305214382392,0.00030291074377686343,0.01047762805761603,0.0034721281692432562,-0.00045108684735509783,0.0007986812890662171,0.0034748345755715965,-0.002699041141666019,0.005980388741249342
1,0,-0.00035299879408849313,-0.0037751149293340875,0.002014868062302904,0.012270990882143756,-0.002167714142569074,-0.002629033693893659,-0.01827503035441344,0.005480914849388886,-0.0014727217500484684,0.006573896064389587
1,0,-0.003613736550163127,-0.0029413975422593235,0.005043046316420117,0.009108388624860802,-0.0076042942119593894,-0.0034617132228480655,-0.03076300966191985,0.005975027568078128,0.00028305583717369006,0.006354850071823815
1,0,-0.0074127454242819395,-0.0004153857418530768,0.0018537947667325188,0.002037498658493617,-0.011083309503819621,-0.0028539108411752634,-0.016196856971830566,0.00956898905004782,0.0016849291883397628,0.0009493596511848582
1,0,-0.006657744142512833,0.0028348945544120463,0.0002598073876590432,-0.006125571268440053,-0.011239535226200553,-0.0013661427533529066,0.010203768217981,0.005394126939026792,0.0021403752752650086,-0.0035635160182754286
1,0,0.004267954366063508,0.005266357970002569,-0.0016351646055316413,-0.011972980463911926,-0.005099142305918408,0.0002689281341826443,0.017841135535242195,-0.0021670745672077952,0.0016460820387365713,-0.003349474321051631
1,0,0.0044183534629729125,0.0054634053542060475,-0.003025425982655517,-0.013027599592652756,-0.0009599261648254131,0.0015347268087303628,0.010504331086922555,-0.011323235239595261,0.0006893457944830756,-0.006688200294953438
1,0,0.002230413016180892,0.002924733100513451,-0.0031971658876121275,-0.008862023139196472,0.00661185080401315,0.002204000996103738,0.0027401175682637805,-0.013810988003913774,-0.0001366963162984957,-0.004981488461770434
1,0,0.00014799962372053142,-0.0015137027486989598,-0.0019146507342498206,-0.001245278655875834,0.012356066161881656,0.00220081274230687,-0.0032592045742931095,-0.004491881603988317,-0.00051116839727114,-0.0027552444847129785
1,0,0.0022699845228842884,-0.005918773142440571,0.00036646599833137,0.00671726476146048,0.013819198898431969,0.0015035130683837832,0.010785315495124575,0.001461826499715442,-0.0005162580910125849,0.0019516235108480609
1,0,-0.00018896273581033994,-0.00810990439665463,0.0026408014894093216,0.01194738717972205,0.009919360840605441,0.00021422314061625178,0.008005703099634928,0.010077291041671774,-0.00048004349988764965,0.0026210833291733992
1,0,-0.00191260814838916,-0.006726259974187778,0.0038135424788102255,0.012580531295475938,0.0016531408922080394,-0.001307267118145581,-0.006662338786937315,0.004845452056652751,-0.0006736949293643762,0.004198634626133953
1,0,0.003100461445573343,-0.0019863200527170752,0.003244537352899293,0.008530748041603229,-0.007977235116043365,-0.0024478169192927966,-0.016766867566539497,0.005948367488764369,-0.001072862051129195,0.004470487984234929
1,0,-0.0001247829418398075,0.004256745231811861,0.0010905090032491513,0.0013715408347114424,-0.014997831464369796,-0.0025885145418932222,-0.041991131236124406,-0.001976806089912163,-0.001338457047881509,0.0021317075345139457
1,0,-0.0031957059613382448,0.009242206410961374,-0.0017336140300552262,-0.0062822563017919135,-0.01616037456903013,-0.001493773653338433,0.0008689761986558736,-0.0006027259741261828,-0.0010384787613858643,0.004856028097540409
1,0,-0.0018478489826491693,0.010523678255266143,-0.003957565983018467,-0.011651110208891757,-0.010553727889852562,0.000424024147826625,0.034707777740335066,0.0007710392745035512,1.553310072557899e-05,0.0028071098601938457
1,0,-0.0010487483691185124,0.0071465313676406135,-0.004526832009928845,-0.012707032835261556,-0.00026731997616879827,0.002215003358094398,0.027137761451431614,-0.001841114277242475,0.0015311109408878319,-0.002833912101050182
1,0,0.0006174642000539481,0.00022530895625967156,-0.0030776108490413157,-0.008907734705074858,0.010365606403210853,0.00289692615956362,0.006872252960316744,-0.0038801660620722,0.0027786666261886157,-0.008881665907434421
1,0,-0.003959064075937186,-0.007395675324349766,-0.00011592530943406253,-0.0015097213734530201,0.016683786954891925,0.0020659193364628483,-0.008611023195949688,-0.005218893856715794,0.0029482439376125914,-0.010993751980119468
1,0,0.0009691845901628623,-0.012315241361096107,0.003160415693116776,0.006732708492341659,0.015862854185262402,0.00018790265123864463,-0.01459188708936561,-0.0001962060479436085,0.0016532541069887176,-0.0072071387852096
1,0,0.0013348977846637331,-0.012103988671206404,0.005322782925370479,0.012507604278067064,0.008256226624621789,-0.0016662396951772527,-0.0106504211073297,0.0009368666472425227,-0.0007171379558939397,0.00017476014195444282
1,0,0.00038867515932448666,-0.006501527795537903,0.005289117430877343,0.013274044739455492,-0.0027498066111462057,-0.0024825890709945335,-0.004968773409644934,0.0005980448165284996,-0.003063696938325814,0.004727074159700286
1,0,0.004687843123786526,0.0023101109634409904,0.0028130956954818156,0.008457063047145677,-0.01229132477198654,-0.0019113117075536016,0.001548559052761722,0.001961508605200144,-0.004109911404520318,0.010229785456877603
1,0,0.006779431642949299,0.010559277140513149,-0.0013010774775020163,-9.629228288228546e-05,-0.01624252217543531,-0.0004165193708831703,0.004165547557747,0.004859684659915593,-0.0031456807290320354,0.012489664189660816
1,0,0.00713661539933331,0.014537540117814924,-0.0029025935315101035,-0.008756828454489524,-0.013049320905230524,0.00108815723101169,0.0075699489889908475,0.0032891838050445018,-0.0005289157855103854,0.009790620925358201
1,0,0.0008080936040113198,0.012309680910916767,-0.00764496777921724,-0.0136801103118654,-0.004350386646927906,0.001818729671381132,0.004253349210777003,-0.001129336224380087,0.0024203608443099226,0.00295246335061648
1,0,-0.011026014907924145,0.004663444749711782,-0.006835698561586024,-0.012602384098836234,0.005850327484477662,0.0015186506954363796,-0.0035911995304232845,-0.002334396768942561,0.004130597655421494,-0.009079180018061564
1,0,-0.020065771616100864,-0.005177101165928267,-0.003060980201222914,-0.0059669779747004974,0.013028514021537319,0.0004784577433575119,-0.012714493106209656,-0.002249547722152564,0.003680180200323515,-0.013835705914844891
1,0,-0.0030367453453000854,-0.01295752124469844,0.0022272493979153137,0.0032308181905436207,0.014148442091043,-0.000727288694337949,0.008137251591901857,0.0010601133284744199,0.001331409724180639,-0.013333770769509295
1,0,-0.010300887505691535,-0.01527422957897069,0.006776494023371875,0.010847527732206201,0.00895723214572768,-0.0015465738938942393,0.007296937504949827,-0.0009711674357700918,-0.0016260221410224083,-0.009901212086397536
1,0,0.006818421150205437,-0.011084259699915047,0.00856804424602059,0.013552569506912688,2.1535261922137916e-05,-0.0016353958133507919,0.004646502690895656,-0.005508026626372992,-0.0036085439792614754,-0.0027874285549174187
1,0,0.0303306521268613,-0.002175892041467313,0.006788418866758242,0.010348950825745143,-0.008490920468636946,-0.0009200257382635273,-0.0061246853174281605,-0.004042091425610289,-0.003602063953811406,0.0064067497160800735
1,0,0.022510590881120417,0.00761153641536867,0.00217949465631941,0.002886117347999474,-0.012734694038622039,0.0003880494547856101,-0.004029708201212048,0.003014046697603118,-0.001670814704010247,0.017757348532483546
1,0,0.0020416928853618306,0.014079541506911571,-0.0034072891018885917,-0.00554656396323828,-0.010940208601409068,0.0018011870443994825,0.0015429056196585664,0.011987445399014193,0.0011308489840126973,0.022470334480136054
1,0,-0.01964680222658356,0.014516649095364468,-0.007940230420653291,-0.011744802773101148,-0.004185926132143116,0.0026515605866073155,0.002786407788507947,0.005460274792561835,0.0033415013056280556,0.011150049634865851
1,0,-0.01785582904239998,0.008862361579052028,-0.010065074715102932,-0.014076314580961343,0.004173090489494501,0.0023369581084356906,-0.00837004918534857,-0.003086131951634002,0.003829479885917932,-0.007566831292501577
1,0,-0.016133689747810587,-0.00032882174201826197,-0.009458672498681589,-0.012945949989072154,0.010145583624388221,0.000668447047316214,-0.02208971053891149,-0.017158181689959903,0.002319978135885272,-0.018039434866622465
1,0,-0.0025613577829785117,-0.009077493093436651,0.0007469700324760165,0.0020823478563887212,0.01102151575696676,-0.0018636059784125332,0.013493042750963486,-0.003972123701437001,-0.0004988221251646458,-0.009973769258644516
1,0,0.009167294817695378,-0.013748831986980821,0.009481975572383228,0.014429381673145456,0.006634919905713822,-0.004128833866566205,0.018901723145923695,0.008720948025181764,-0.0032983632494933903,-0.01145984191968023
1,0,0.010602360994918791,-0.012586535309197885,0.010718671381222032,0.01783475304654147,-0.000641712502628084,-0.004806107592184086,0.010566410535800349,0.009879456211767555,-0.0047066085476444395,-0.008296042902326497
1,0,0.007181077131507476,-0.006350296924579799,0.005269961059630913,0.011837063861197568,-0.007152996194422947,-0.0031039722075349584,0.0032010717187773434,0.004177262911476049,-0.003931753770066755,-0.0005342097534613412
1,0,0.0025044348978239725,0.0021520249727759863,0.001961879695323891,-0.00034471093611751735,-0.009811617618569976,0.0006251377418282312,-0.007999491010989982,-0.0003998731988876374,-0.0011515380439990211,0.007892020447905376
1,0,0.0012650239095369428,0.009346169474827927,-0.0011136883450860436,-0.012251735276923493,-0.0075895167292707,0.004810450046502061,-0.012861041701132394,-0.0037177723521276953,0.0025099013815733807,0.015618451249714506
1,0,0.0005167029136581199,0.012391678659792005,-0.0048120249089782805,-0.012322185366264012,-0.001905236206337513,0.007319003818627312,-0.009104828869918147,-0.003474491711027474,0.0054265896048279775,0.0174465209608465
1,0,0.0002452841586733187,0.010286995296406896,-0.007035431877498255,-0.009326314872394695,0.004231236796507724,0.006577038676293392,-0.0037529681445891572,-0.011185962172618844,0.006162530335215512,0.009827239088758844
1,0,-0.007489324982162826,0.004172169821326698,-0.006357827581567553,-0.003728191388352741,0.007806723033180038,0.0025245040266645953,-0.0006188710746256365,-0.008107839105041308,0.004130886368444087,-0.0006562466027085544
1,0,-0.0070299562024957254,-0.0032512553406483223,-0.0028451975872107954,0.002573639644486424,0.007279943117447692,-0.0031998152074571226,0.00476780515103502,-0.003586648703875824,-5.2792685697091953e-05,-0.012700918889819756
1,0,-0.0009029379899422837,-0.008911734211329804,0.0019044582747176398,0.007221415456745379,0.0032185939909168196,-0.007995910073914203,0.010628940958275886,0.013906943052762487,-0.004704044867573985,-0.016239960077539944
1,0,0.0006422344130790682,-0.010644481006502003,0.005584017617635481,0.008635693765597984,-0.0021501821488271937,-0.009562291451893806,0.010677707246652419,0.01713362312666832,-0.007711504925312095,-0.014781041689908783
1,0,0.0010194389316575212,-0.008005716455899566,0.006433723478710666,0.006727797660279969,-0.006157759296646019,-0.0070023921120929864,0.005693652503915697,0.010505205382443135,-0.007486327293624718,-0.009652282242856193
1,0,0.0014549720936719505,-0.0023221486053442973,0.004203310628544441,0.0027473553321212037,-0.004523104836893325,-0.0012430246665880746,-0.0037163558369194094,-0.0005815815085805504,-0.003803063949210538,0.001422675579476726
1,0,0.0027316389245419957,0.003958247463971814,0.00024913649816357556,-0.0015011832472279706,-0.004648122190128928,0.005375210172366855,-0.00545323418989644,-0.004363051357451198,0.0019276913935849494,0.012995147567292935
1,0,0.0037958400769801644,0.008279972950358299,-0.0032801982984976734,-0.004526832499626119,0.001983473993357942,0.01009196386848537,-0.010340988356573917,-0.011456205574139669,0.007183918138320139,0.016477715085314985
1,0,0.002297663256848103,0.008963904112303748,-0.004671290767609108,-0.005647653341104686,0.003173462538743185,0.010861062290356922,-0.012900887394696824,-0.01814131470855854,0.009475507467569751,0.014691933542553855
1,0,-0.0004851091157274682,0.005845202013338846,-0.0035587197696122855,-0.004984780164888789,0.004625474168102142,0.007186913655777662,-0.007459255606364204,-0.013592998194134535,0.00757492277425441,0.0018114061114331455
1,0,-0.0029324230367358097,0.000354791954952098,-0.0010006827694835137,-0.0031291261833740367,0.0032792320332411156,0.0003695296676350932,0.00047915686920110584,-0.0010561935158332194,0.0022021809604205952,-0.001364084799615544
1,0,-0.0014193479379471328,-0.005038881714788229,0.003771767125449713,-0.0007683599940009871,9.587491498579103e-06,-0.006937727083360885,0.022114945397031422,0.014650466578578436,-0.004241358742394552,-0.0029668324794706173
1,0,-0.0007945976117313356,-0.007895641731178632,0.0019126048577931564,0.0015229680880870467,-0.003363474052551337,-0.011735049841346087,0.018653289016014703,0.02167654018176424,-0.008811113436921779,-0.013043966780646102
1,0,-0.001799158342445104,-0.006960153654800023,0.0007145794680067915,0.003308110249453946,-0.004984212948728492,-0.011904416604429209,0.008226363591613163,0.015192329598758688,-0.009455538380062125,-0.014823549822249394
1,0,-0.0004598444023133429,-0.0028205406136482796,0.00115726986714696,0.0042429589413231494,-0.0038766439696831458,-0.007167560102677169,-0.006646300974589933,0.0049868589219495855,-0.005990409512399729,-0.010515770044164657
1,0,0.00013367113012089575,0.0023626486269328864,-0.00279967840167038,0.004083681626401113,-0.0004607490155194994,0.0006790435124830524,-0.014974559457638469,-0.009455096455280901,-0.00011354245136473136,-0.003838490931033491
1,0,0.00013230831894489416,0.0059888533103305665,-0.0026772806317810097,0.00277537632052222,0.003594934273295992,0.008433457723121138,-0.017538429640659704,-0.01825901746835881,0.005496249419752323,0.006473817391887916
1,0,0.00014840064207746742,0.006394353233796496,-0.0010078801878794855,0.0005580214114468746,0.006160200663188442,0.01283300433742274,-0.014192090737532017,-0.018051305868575132,0.008475817696679306,0.016625262292866174
1,0,0.0006716058564900115,0.0036705727273541725,0.0012900654291191137,0.0004809967635298771,0.005719374349243395,0.011992714070117014,0.005740289006107052,-1.4423228396619902e-05,0.007802296614453134,0.015207220709091387
1,0,0.001615522887163105,-0.0005294921569465957,0.002983055601219802,-0.00423948229246288,0.0022002666496103176,0.0062605927335986624,0.014230256915934424,0.008252688768936112,0.004094071461634941,0.011614932307103289
1,0,0.002314444707415174,-0.004007115530759604,0.0031855573117949613,-0.005428772109102078,-0.0028901570505288107,-0.0019340305147392683,0.013651823919460711,0.004349305381934294,-0.0008539541376713255,0.0043353628929897955
1,0,0.0019848555264226214,-0.005194700040683924,0.0017742660449712481,-0.005117712409900869,-0.007127166118747208,-0.009169940936635708,0.006057924433778548,0.001553142355351926,-0.004978990616802165,-0.008483346567235874
1,0,0.0003505962639946618,-0.0038337107721494357,-0.0006054196866338789,-0.003203592059617484,-0.008326302200506808,-0.01253360947855085,0.003856488959908763,0.005121067386920954,-0.006830143721433114,-0.01648741894131506
1,0,-0.00199792893481594,-0.0008902579325968575,-0.00286877048518458,-0.00010831609257670083,-0.005645013549845712,-0.010830620410711941,-0.0031398631584125883,0.0010687255658268062,-0.006040124247065479,-0.016466212286167032
1,0,-0.0038066518754836854,0.0020973193532783734,-0.003970103997920195,0.003219844960007683,-8.265242819788525e-05,-0.004989761377143442,-0.01083165197495064,0.0041857661341625305,-0.0032625696350312575,-0.010949883438198171
1,0,-0.0038797003102247307,0.003811469100237189,-0.0033476869229697582,0.005579942683364572,0.005905710787171874,0.0024586150961192215,-0.00950040491553862,0.006079609344464031,0.0002833956720162475,-0.003237077202476227
1,0,-0.001900004532870414,0.0037030129633918046,-0.0011885871683612916,0.00600961735475547,0.012022167246023742,0.008530581888115776,-0.004776507525514375,0.0022174275491848344,0.0033704144597931627,0.009252841812217983
1,0,0.0012295362845794325,0.0020993953944946323,0.0016039808214800156,0.004258831521740657,0.008918060505514662,0.011016233218678981,-0.0023639955697098026,-0.007469700854665945,0.005156917586071068,0.014684485251003701
1,0,0.003842613244472298,-0.00010189650422735788,0.0037791800848615007,0.0009645015269707697,0.004083800292483676,0.009265218845279526,0.0033130218004619716,-0.014515926184190103,0.005308906129918372,0.015197030835606348
1,0,0.0045148429321188255,-0.0019479501754766549,0.004318644001831736,-0.0026002618287746097,-0.003046148272252496,0.004267513726439982,0.0020691799224012777,-0.014690094208036882,0.003917031752431193,0.01087860062186249
1,0,0.002936707978728236,-0.002859327583741598,0.00294864894716664,-0.005079183626472536,-0.009386311832430263,-0.0018999459944607842,0.012558403727939193,0.0019379447209821631,0.00136607485440817,0.004615733499555855
1,0,6.015371069708271e-05,-0.002755807702300543,0.0002988967998476028,-0.00560593981553058,-0.012072081413125147,-0.00695153760998253,0.00984046129799981,0.008406415814631679,-0.0017301330434319796,-0.006550477370743987
1,0,-0.0025415063527942264,-0.001883191878913709,-0.0023965512205721476,-0.0041324719575692595,-0.009758610740860768,-0.009220813247403837,0.004451521478495749,0.011329136975611828,-0.004546956607290337,-0.01581737126003195
1,0,-0.003628447126079515,-0.0005554878459312292,-0.0039058594162678993,-0.001387874409002597,-0.003254581090717699,-0.008151139709694768,-0.0057157033520676736,0.011322382655747516,-0.006142662369744908,-0.01789638908630985
1,0,-0.002945015449432791,0.0009547178201016114,-0.0035994141410140962,0.0014881364010530666,0.00478685698663348,-0.004341673783529702,-0.01202880656002495,0.006053110312739948,-0.005727258509993238,-0.01297514330028885
1,0,-0.001217618587465576,0.0023367340283227205,-0.0017418864963683718,0.0034582111146730784,0.011000723795114575,0.0007727343684395137,-0.012506707974390973,-0.00034858779416899107,-0.003061758229089912,-0.0015879950936992797
1,0,0.00041328298691840605,0.003152032546129844,0.0006670440649451441,0.004006606320070061,0.015258880379834404,0.005426037854039733,-0.006369209599979721,-0.007458595182343219,0.0012169974509376434,0.009134524412287588
1,0,0.0011307623999235693,0.002942105586637556,0.002428126766660708,0.003268923602726044,0.009260788038093371,0.008047836058182834,0.0042232921207531054,-0.012664623392290736,0.0056033103324452035,0.016963873992340305
1,0,0.0009114902573645324,0.001536731138042138,0.002781849688098634,0.001825956749347727,0.0018339059869304862,0.007728659330003466,0.010104741751951685,-0.009572977545326848,0.008203003459610475,0.01698136022219326
1,0,0.0053302873101720325,-0.0006810861003113338,0.0017957126163665894,0.0003076439977111167,-0.006607113917870321,0.004558455467302417,0.008141736746222253,-0.005512859632953814,0.00757452807400474,0.010064585903961606
1,0,0.0003997214388433007,-0.002830108453839061,0.0002604599549847356,-0.0009286340171304897,-0.012727452351124212,-0.0002950713900649322,0.005830567226439617,0.0033931500347772914,0.0035478669943399964,0.002312036330999192
1,0,0.000818974989513536,-0.0039439796385012105,-0.0008484002280011012,-0.0018426819471386818,-0.014095934261859422,-0.004927065181590478,0.0019854589635909703,0.010332230260877838,-0.0024602337677344785,-0.010942331806006178
1,0,0.0006971184063172169,-0.003486151729947524,-0.0009974863882987871,-0.0024990117694987293,-0.010109841981709724,-0.007451074816380089,-0.006758975811843787,0.008617854898941306,-0.007913479578181178,-0.0179729302753853
1,0,-0.0016259460001174111,-0.001630465732121659,-0.0003972065256093546,-0.0028239706452061384,-0.0021954481943847718,-0.006865892580344648,-0.004473168386451139,0.006084543578063689,-0.010262631820975148,-0.017339175502893125
1,0,-0.007678953820801585,0.0008436714630631338,0.00021775489705011332,-0.002564244830704318,0.006731173879289328,-0.0035523157068156883,-0.0029285229241188633,0.0020790534632639662,-0.008175426450880941,-0.010265977764186656
1,0,-0.010374104206466074,0.002934962717724221,0.0001680515318371744,-0.0014863245635963218,0.01333134859090809,0.0009222346283305126,-0.004754946812640295,-0.005580388876052717,-0.002279728605248414,-0.0006033726570547516
1,0,0.003921804355230549,0.0038524001899975582,-0.0006414119516010931,0.0003465092988182931,0.015076933151328048,0.004593234548687931,-0.0013285469721705137,-0.003098219110128676,0.004975171226236031,0.016820948661169056
1,0,0.0140434005745872,0.0033082127407820096,-0.0016191407198093686,0.002436919353126289,0.011216054341588146,0.006026073564809567,0.00395331620870202,-0.0050089849707580765,0.010336074033803185,0.02130045623855518
1,0,0.007868136983721618,0.0015912598609508404,-0.0018882500150596442,0.003977205579413671,0.0030903476447245496,0.004891325932987995,0.002918585552503839,-0.003574724975408977,0.011228012750549334,0.015860775417993342
1,0,-0.0013574788718073811,-0.0005755362813500451,-0.0009179548580545861,0.004200547521414824,-0.006353962636736138,0.0019656858842594474,0.0026514069555440473,-0.0019956001843120076,0.007029364188399498,0.006212170118361623
1,0,-0.009940450138541659,-0.002338952255635807,0.0010428363598524444,0.002792467785071686,-0.013678650868649259,-0.0013400948562730512,0.0012836192701995667,0.00016989826141880658,-0.0005017981500817465,-0.009458549565294776
1,0,-0.004388916072999592,-0.003076694702280307,0.003022701409008982,0.00013897477267695005,-0.01622971432571383,-0.003643719549708074,-0.0004319875830912838,0.0010275662871273596,-0.007941006716713868,-0.01690646557292932
1,0,-0.0001850339850468961,-0.002662622708464611,0.003852246473220185,-0.0027511750005093575,-0.013069983744825462,-0.004150114650466281,0.0011918255077921997,0.00020269184614834162,-0.011792578350346727,-0.01661952274322368
1,0,0.00264833915154068,-0.0014857143959322906,0.002846192505115445,-0.004652253898782951,-0.0027742272071744063,-0.0029028693709394295,-0.0005073268410957611,0.004061923533390228,-0.010217246666170281,-0.01340425826009992
1,0,0.0022132804396430305,-0.00018610093137960273,0.00024479253794048775,-0.004683073529881242,0.004431329643676136,-0.0006644838255949944,-0.005394253442803633,0.006168793672740511,-0.00398836726323478,-0.0004819929714739637
1,0,-0.0010997176709669134,0.0007422270648635022,-0.0028375831198380204,-0.002757282855782982,0.012584516040365385,0.0014866989365099057,0.0009629672790576954,0.006936240786266732,0.0038855429029077673,0.008668195109511157
1,0,4.745832646253906e-05,0.0012166924393584996,-0.004932055342648545,0.0003139889461713656,0.016221103660163282,0.0026475376912036526,0.003508708476429377,-0.0013136985581092841,0.00970661813886054,0.01355473528266689
1,0,-7.452248164244737e-06,0.0015086272614267357,-0.004937813254701225,0.0031561688980205785,0.01645048931162916,0.002458610031157665,-0.000581980406487149,-0.003443096343420025,0.010941305690271333,0.0146874341950219
1,0,-2.3479716842904954e-05,0.001903005189168192,-0.002691856991759988,0.004477196684821059,0.006436823936829335,0.0012087491791799006,-0.00216309843594712,-0.009674201710714142,0.00735020065782848,0.015356937231254279
1,0,0.0008923594442282375,0.0023347945244357373,0.0008969559002721988,0.003715541770903778,-0.0038037668772643992,-0.00035712721442945683,-0.006522827367459161,-0.010198236586192073,0.0008598318167722638,0.003620207235016705
1,0,0.0012057746775202772,0.002306166626948016,0.004237678037472772,0.001340080275553778,-0.013178178632272974,-0.0014395284246377976,-0.0016554930637406506,-0.0017822049696802707,-0.00557054926186055,-0.010669408184621927
1,0,0.0027496688826445016,0.0012125203025279408,0.005807290749139969,-0.0013867595962183772,-0.01820924121743452,-0.001598605998574899,0.0056170761772629165,0.008382603346323774,-0.009337045014335221,-0.019557753926342417
1,0,0.0010974983730103794,-0.0010960626501075625,0.004895053811501705,-0.0030791032604345547,-0.016809624522828363,-0.0009501937177756059,0.005849666847927505,0.008633342196216467,-0.00915229620910154,-0.019686235025826115
1,0,-0.0021928048491741464,-0.003920437633710758,0.001948034105272033,-0.0029728512712815605,-0.009151714781333304,-2.441641926009274e-05,0.004133671339474722,0.00821484831584213,-0.005324175931082162,-0.009402397803200268
1,0,-0.00498914253705249,-0.005855618808855228,-0.0016764005468857049,-0.0013251849547145185,0.00223010023483671,0.0006126129018427834,0.002056640872516402,0.0009771442703554528,0.0005308546933425792,0.0022240194556523234
1,0,-0.005424525140736937,-0.005515306540015982,-0.00441421641566305,0.0007705734255726706,0.013213321164017317,0.0007113458788146568,-0.0011604206287376235,-0.0060119284092606485,0.006114069301234819,0.013643608971798893
1,0,-0.0027869060811272087,-0.002449945258821247,-0.0052536488190013855,0.00205181959455657,0.019556508503977617,0.00043620136084937815,-0.006112443065152298,-0.008131835716532611,0.009234332376263626,0.019084464032120604
1,0,0.001979173724183595,0.002350995157770459,-0.004127723212428992,0.001832553885673338,0.01857946472282137,0.0001703839506061968,-0.005336005790067279,-0.006933178851397063,0.008595722101123941,0.016296792887279355
1,0,0.006549836823144855,0.006784061651284825,-0.0017642679550468616,0.000374498799576955,0.010378489609143353,0.00018452409030896526,-0.005051150643943595,-0.00276931736361987,0.004347939671744162,0.007646636068699447
1,0,0.008309839138394374,0.008672379265721886,0.0008336469551450806,-0.0013254632646792991,-0.002017761822783517,0.00040437647876109876,0.0031600099076049878,0.002242657813196442,-0.0018623624882178184,-0.003644461125339792
1,0,0.005785819889377015,0.006927673870518086,0.002895378121147252,-0.0021686808449293007,-0.013745065054522776,0.0004534677238164658,0.0026580102706541277,0.010795734869896278,-0.007466225781331698,-0.016011131460431156
1,0,-0.00035015062276134507,0.002151581980522509,0.004071470580080478,-0.0016042789610450827,-0.020077222538902005,-2.7466601023223307e-05,-0.002595092639510945,0.010956674229693443,-0.01001820568092602,-0.022646873771748836
1,0,-0.0024904280230066077,-0.0036521691202574956,0.00428353060928679,7.814879504868112e-05,-0.018444453918859884,-0.000998575011838198,-0.002223823956272383,0.006967251897221089,-0.00828536503066814,-0.013391651593675296
1,0,-0.009440454700605075,-0.008056733398354131,0.0034849645903438356,0.0019414051208980886,-0.009574772342677711,-0.0018961301668388518,0.009860350334467863,-0.0033885885542359238,-0.002870504935590709,-0.0007030696622907021
1,0,-0.011737323438930669,-0.0093269759162272,0.0016212032410156164,0.0029323563870088344,0.0028020110854057472,-0.0019414976279020601,0.011868727036445703,-0.01364516104588794,0.00395874389947124,0.010304352514815747
1,0,-0.00676354803811388,-0.007106586064799946,-0.0011425176665080443,0.0024498077308318256,0.013582215202142547,-0.0007255130204536452,0.002947709760439408,-0.019317867448838438,0.009211013384959887,0.014870292592746026
1,0,0.0033588027299009,-0.0024088914706797823,-0.0041490051922404795,0.0006574751237056075,0.018501746806036074,0.0013547731651819036,-0.004774368570544164,-0.003285976322198771,0.010500453377945345,0.015246114919506159
1,0,0.007881852389152325,0.0029643398598617515,-0.006261282245622994,-0.0016022676913302527,0.01591479968847957,0.0031821036372915177,-0.009216885960511647,0.006546118798469567,0.007169313111867012,0.006731842408580363
1,0,0.011338985218909758,0.00719634173140346,-0.006303976904129577,-0.0032329072984423174,0.0073536742214801235,0.0035473134844348393,-0.016827652460893714,0.007541921967151737,0.0006500980942705441,0.0019391903006728893
1,0,0.009816232301010985,0.009044289587937897,-0.0037444460617978314,-0.0034232649671018757,-0.0033161233329043463,0.001935849408431102,-0.008450970986610672,0.012470810080958468,-0.0061582659861462025,-0.006994432854817315
1,0,0.004039303867422447,0.008071952704575672,0.0008048983698063173,-0.0020391573648253954,-0.011692586174917233,-0.0010514598699727974,0.0019532820000220607,0.009570820537834226,-0.010230303467300056,-0.016147575779389148
1,0,-0.0034769329926441408,0.004594029634261334,0.005637086277368948,0.000307719376214236,-0.014739734823371651,-0.001456608372607229,0.01472947550326273,0.0023253274244761485,-0.00981139860104193,-0.013786346285857056
1,0,-0.009525389810467317,-0.0004824479337944237,0.008631065705653557,0.002536776788271709,-0.01194047088201449,-0.0052796861151311655,0.015952772678290757,-0.0035015160056274665,-0.005185533380975816,-0.005575347926441128
1,0,-0.011573542469569993,-0.005799336371097977,0.008263781351211542,0.003598736094070636,-0.005216867910439089,-0.0043116163174998536,0.00929851245314472,-0.008777844816770866,0.0015258728759152459,0.002906569338518174
1,0,-0.00882202455705928,-0.009723397526338638,0.004424602851185937,0.002980508128748944,0.0022481934387705107,-0.001462472554539381,0.0019555244167914804,-0.009167094373313941,0.007379186683173646,0.009627900208599188
1,0,-0.0025031583736418494,-0.010712169305355537,-0.0014295772303085312,0.0009788187183366185,0.0075937059947600565,0.00199364846792309,-0.009979646804605714,-0.008969595651145365,0.009923871466066369,0.013568898598171437
1,0,0.004690981838392778,-0.00791545732667797,-0.0068938492068032365,-0.001412225891102344,0.011894137084352358,0.004525287732959339,-0.02010871635729765,-0.0046410186332916485,0.008225650822662533,0.008502239804417576
1,0,0.009778166120699453,-0.0017848240145788934,-0.009703017328151077,-0.0029826828902923333,0.0078082135651571264,0.005018463933044908,-0.006904657915829619,0.0011545793657925102,0.0031858998637392796,0.0007010687510703396
1,0,0.010736503504148079,0.005733899588869294,-0.008738539648347785,-0.002938997772470567,0.003999779476616613,0.0032548185214940134,0.001934152422535545,0.008473015135154615,-0.0029314943695389994,-0.006312528549277159
1,0,0.007309383733039099,0.011741821372572177,-0.004470360353028936,-0.0013494328563954372,-0.0005481263381503194,1.7749528486370482e-05,0.0073164132524774755,0.008751312287854472,-0.007524192982385462,-0.008511455849691875
1,0,0.0010509055281716852,0.013570597472647274,0.0013381398446612978,0.0008690084542137437,-0.004469420495201986,-0.003217477897383393,0.005980747024666558,0.010071940162745497,-0.008767007832321963,-0.005846764925492454
1,0,-0.005373746409477418,0.010073132745744683,0.006455913921761107,0.0024466813011567467,-0.006722974298778961,-0.004922958385973173,0.0035896615896029434,0.009324035631801146,-0.006339775983411093,-0.003089343761635992
1,0,-0.009321105165379725,0.002327604994691374,0.009097350410329672,0.0024763730270403943,-0.006731890765155322,-0.0042519087913931025,0.000819259373773455,-0.0007265505370966826,-0.001475949178263931,0.002610662917065913
1,0,-0.009265542491336275,-0.006677586120297217,0.008509919010216103,0.0009396505163887498,-0.004543353641222963,-0.0015157269129550636,-0.001171400662441286,-0.008176995546929092,0.0036517986344958737,0.003451701996646651
1,0,-0.0054093441343314305,-0.013279444480760719,0.007553171657992649,-0.0012647938708985076,-0.0009131951111286978,0.0019016109255345583,-0.000497415978712699,-0.014523927419241599,0.0069078284949924875,0.0046742153405666224
1,0,0.00045074267573967576,-0.014721095076464854,-0.0001277596189761731,-0.00281668290845698,0.002855396282411631,0.004224306833705781,0.003030473880017716,-0.012147818472000377,0.007092763090123937,0.0008325427146555734
1,0,0.0057462287272301345,-0.010346980369090698,-0.005512278458159699,-0.002719983396959154,0.005353747678112828,0.004229883176146443,0.0005230014496969297,-0.006482835505316599,0.004384756971266452,0.0005051394265941757
1,0,0.008281603458751393,-0.0018933331844596603,-0.009491452451670272,-0.0008828043896931983,0.00562830817128556,0.001935687611992232,-0.0027053182135186164,0.0037623611721414344,0.00015752223236485988,-0.0018762921072867206
1,0,0.007175672396643547,0.007228214571816248,-0.01066530781126898,0.0017936188400507764,0.0036046001826399604,-0.0013734333725054974,-0.006211689285193801,0.009342586465775318,-0.003710599155705147,-0.002424355824999257
1,0,0.0031699818131546292,0.013344639471510489,-0.008294489333479876,0.003871783329298446,0.00016948999378236084,-0.0038210792775181576,-0.007701026077423989,0.013481889454574363,-0.005692597192909453,-0.0013011203029976773
1,0,-0.0018125674212401185,0.014054268552295404,-0.002755505623639422,0.0041373020690466085,-0.0006763023532063213,-0.003978932706039381,0.00020114647680446784,0.00975001108933802,-0.005222382466516512,0.0005732901479842847
1,0,-0.005609488447324116,0.009234100802708773,0.0043201763128834164,0.002254911212286843,-0.005006386294255041,-0.0017057192553630329,0.003278049853386601,0.0031115590890520546,-0.0027968257545485783,0.001505201417039118
1,0,-0.006784047772111136,0.0010600827393767603,0.010449115358069846,-0.0010247574332176116,-0.004647467040280847,0.001715284003649864,0.0042094406511302696,-0.00287016760570823,0.00040114404442281567,0.0026614966326606302
1,0,-0.005159344394659735,-0.006997484266273928,0.013181128819794476,-0.004209922525141615,-0.002453540205136626,0.004271916989902147,0.0053193255736657535,-0.008354849000283176,0.0030901375513918586,0.0013072104512846558
1,0,0.00076128988820226,-0.011735249155424093,0.01111689543168122,-0.005778466476548439,0.00042905226607338015,0.004382252066230392,0.008891052005869123,-0.00922957690065991,0.004379178045632682,0.0004048117039492665
1,0,0.0018434822094374724,-0.01157380963720363,0.004605466031279273,-0.00489441474772375,0.002649081240869601,0.0018361329778184773,0.002009424652986101,-0.0071274397055813045,0.003988962240284864,-0.0014509644716271014
1,0,0.004073326807635796,-0.007079266028144867,-0.004209835518335685,-0.0017927733710654727,0.00330176983847679,-0.0020467327433255243,-0.003647007822082422,-0.005917168251696335,0.0022175154788902033,-0.003357050042494283
1,0,0.004209382104766162,-0.00048823881368015233,-0.01206925193838707,0.002318526125855834,0.0023087618768248466,-0.005133616754930659,-0.008214242818379154,0.0015779502465711102,-0.00024249429626508435,-0.005303196221229639
1,0,0.002517092855463651,0.0054239146420792085,-0.015789037781092218,0.005765405243753945,0.00035323249376146957,-0.005649180655835201,-0.008298845937156348,0.005392738383595111,-0.0025381738245012528,-0.004993673037052768
1,0,-1.392014203169404e-06,0.008538893399640196,-0.013548452402351785,0.0070961539270331065,-0.001528886203403722,-0.0031433450465358065,-0.006767963445838423,0.00861422936859244,-0.003895903998702492,0.002018529069132028
1,0,-0.0021613231010259026,0.008135394829386326,-0.005770461903511802,0.005676121975378338,-0.0024451719645759676,0.001250837390746991,0.0030144334418351426,0.011639631656091673,-0.003839227943537457,0.00844268731778042
1,0,-0.0031278409804484215,0.004945990641473934,0.004817244594471564,0.001953289231436269,-0.002007185701670704,0.005374835385520594,0.0070587628002086195,0.0043599226281711605,-0.002343189849046047,0.007378855825554141
1,0,-0.002701274420084502,0.0006303466275298162,0.014087832052049077,-0.0027158225866901436,-0.00045758051914294914,0.007113382329780651,0.004172454645881925,-0.0028482276125140985,0.00012397752697057595,0.004338677505968425
1,0,-0.00127942043030506,-0.003026925646535914,0.01813822706256029,-0.006599197789861604,0.0014388884441535203,0.00544829677471493,0.0038112210851880667,-0.006920158076128179,0.002700665004497498,-3.5562268589525305e-05
1,0,0.0004204338889045937,-0.0048405827058887975,0.014998766937984328,-0.008235231788790993,0.002704557863972712,0.0009994655166955838,0.0002475283130585473,-0.008221839173718007,0.004376959353009133,-0.002376228115680456
1,0,0.0017084284005457358,-0.004598137112875845,0.005645410448501502,-0.00692742241291553,0.0025832795189437686,-0.004209810205738908,-0.006112959666693327,-0.008533589969715389,0.004360191831349101,-0.006704151528007687
1,0,0.0021753342259451264,-0.0029658922492252072,-0.00624164161636973,-0.002960325178695076,0.0009491511614953376,-0.0076781970037665325,0.0047551278091770835,-0.0019226126077586305,0.0024666478815851814,-0.009981828275127134
1,0,0.001774549514577301,-0.001010931840376056,-0.01576996904350988,0.0024478964924315224,-0.0015252950816776563,-0.007631837015742899,0.008713013528691322,0.004072247016629251,-0.0006544970223190755,-0.007027449631057004
1,0,0.000759093965148147,0.000397602297338921,-0.018953534485557276,0.0074261718785855624,-0.003606051077606795,-0.00394021711336043,-0.00037739438407296633,0.006356736973877437,-0.0036778510496305807,-0.0013630664176802216
1,0,-0.0004489965887789378,0.0009861843925702595,-0.01448489515218965,0.009989181549686879,-0.004097488373548601,0.0017323064081670677,-0.010358291497390704,0.004629714100340645,-0.005183532366461337,0.0051424114695943855
1,0,-0.001401320162926397,0.0010744852446200983,-0.004313504303401215,0.008800665181500482,-0.0025103471034297106,0.00667684189683552,-0.01538979184738258,0.002630212726137516,-0.004407486882121674,0.009617922664590406
1,0,-0.0017598199554006084,0.0012150338656061722,0.007256520170968241,0.003905729258532807,0.0005910990850395372,0.008473416569291438,-0.006736282219478297,-0.0010631564897014307,-0.00170167413040621,0.014118832644567966
1,0,-0.0014071400119490948,0.0017252024611553176,0.015509990114703932,-0.0030080334709923742,0.003787129833396286,0.006237696824366976,0.00647469438620335,0.003570147223685675,0.0016356909035228685,0.007277648364950067
1,0,-0.0004901525898981518,0.002412146779114384,0.017359415843890093,-0.009141404986011601,0.005462767083681081,0.00109943756722175,0.011912106033956047,0.0003838162690720415,0.004083773623994896,-0.0004588945773094209
1,0,0.000630225797220039,0.0026656378447756537,0.01252704934475727,-0.011785139138860784,0.004609347563936705,-0.004375578789087085,0.011836461888436999,-0.005842166324757229,0.0047020289037464705,-0.008558294125266255
1,0,0.0015066490406795364,0.0018694459925971362,0.003402168937377055,-0.009611766363509135,0.0038655574614795954,-0.007518774304817169,0.0071270900343312436,-0.007983456929938406,0.003500930311613873,-0.012961158569741863
1,0,0.0017645804684938671,-0.00011912578222610035,-0.006219145818243396,-0.0033646725597001434,-0.0029943286654094937,-0.006922512422654558,0.00040265691436628233,-0.0053668248776181275,0.0012270260019713291,-0.014987760493042337
1,0,0.0012466722768663234,-0.002732019136288495,-0.012809602996442489,0.0044222607882599746,-0.006594817956391523,-0.0031069982028788315,-0.011366670842845691,0.0020854413910796205,-0.0011650885623110691,-0.0058444160586592795
1,0,0.00010267957784833491,-0.004871247895345977,-0.014410424028036457,0.010518432151707703,-0.007741892301100676,0.0018375502145306266,-0.007897093582314045,0.007250762482506954,-0.0029474372034834165,0.0033686627466504755
1,0,-0.0012167118925091728,-0.005427349736796189,-0.011073064567470594,0.012369037444339807,-0.005673979687664671,0.005403832239863374,-0.006067772821890884,0.006986057503796879,-0.003756588032657858,0.01141346197774948
1,0,-0.0020992756423695294,-0.0038526807703986353,-0.004456505821316374,0.009150036332952503,-0.0009934121833917757,0.00597433081313742,-0.002073513666369072,0.004093761543767588,-0.003511906389754308,0.014298024655974562
1,0,-0.002035857221739132,-0.000490901041945765,0.00302433420225903,0.002108572113116848,0.004466662431421047,0.0035859731274032838,0.00015381816209490164,-0.002531318473854331,-0.002302440803421651,0.012124343484684798
1,0,-0.0009118393771180282,0.003489331214324602,0.009037860251313562,-0.005909264654697697,0.00835107213527652,-0.00022234874148609112,0.0028367869614253326,-0.006408316557454474,-0.00035762726278770046,0.004892711999875079
1,0,0.0008456922610466973,0.006523072830048587,0.01191228134223799,-0.01156750919705709,0.008811554211387913,-0.003342561066580982,0.0053162870430311085,-0.003477661819149745,0.0019084641615158041,-0.004448099118762435
1,0,0.0024018868022807447,0.007271721926854679,0.013425431091748027,-0.012401777243178595,0.005417629561769713,-0.004258939504917301,0.008537194448569997,-0.0026238552188477234,0.0038692921655067007,-0.012064214150510719
1,0,0.0029096080829016805,0.00520382619694375,0.006375464450285187,-0.007919196828606303,-0.0005158735693095199,-0.0027929521602138444,0.00317835640265102,0.0009028717404506536,0.004777573715178476,-0.01478717479464991
1,0,0.0019702301189064787,0.0009000173411342604,-0.00047038761209284994,6.256932874526668e-05,-0.0064289553129622526,-5.5829035305678706e-05,0.0011690918631067325,0.0033578551895868535,0.004026467182488208,-0.011282379524606602
1,0,-9.925303397363529e-05,-0.004072580367650653,-0.0075567751821887874,0.008092048792052053,-0.009671210393685905,0.002294225923585175,-0.0022174391041829243,0.005452474653995525,0.0015145382386287849,-0.0032405358946664
1,0,-0.0023564557450916966,-0.007720862895946697,-0.01250950232284714,0.01258032561509246,-0.008757434979629173,0.0030065197895828974,-0.00503495872518376,0.0003156590101587651,-0.002081735545819434,0.006021141422006124
1,0,-0.0036612702231646325,-0.008441225594106155,-0.010921970467720948,0.011466915159354753,-0.004081910332289139,0.0018559701508065016,-0.00968888913754833,-0.0004974314490275032,-0.005368931382585716,0.012121905924633183
1,0,-0.003250686467632112,-0.005759014837971632,-0.009684553885801361,0.005233503193410711,0.0022735628450815094,-0.00035828944647909835,-0.00785101098846968,-0.0038388755950359977,-0.006745373727324916,0.01200235926897305
1,0,-0.0011783727542021354,-0.0006339229570568003,-0.002398922968485106,-0.003281227149453506,0.007526687246269291,-0.0023387007140612103,-0.0013468119005586906,-0.0005760422143690768,-0.005202292156725023,0.009282609330215156
1,0,0.001635720015279379,0.0048674881076353,0.005924489981572912,-0.010204947355468867,0.009471708881997047,-0.0029954671921233332,0.008966861130856837,-0.000996205581425552,-0.0010119732029169235,0.003233086976574148
1,0,0.003825680522825374,0.008432365804410941,0.012256725314517002,-0.012441790505663151,0.007433282013948215,-0.0019679050223521516,0.011359919521139343,-0.0009146479392810717,0.004145308685540666,-0.0024677229842039747
1,0,0.004278876046387193,0.008519471538449102,0.014156681591062335,-0.009085953773767204,0.002479680916950868,0.00024930377369724536,0.004958623533776388,0.00021140256524322695,0.007824378223912269,-0.008500020524601313
1,0,0.0027255886314044545,0.005066905372404405,0.010723828600285876,-0.0017824331347386232,-0.003153849304385725,0.002574707001184926,0.0031525388427893247,0.0017276046162016236,0.008011528132169692,-0.013519152805751692
1,0,-0.0001220081583050453,-0.00044473595239109793,0.0030546998106611998,0.006096797017765299,-0.007119906584267748,0.003848029766573906,-0.0034295222646835333,-0.00023457246293011642,0.0042751831332299315,-0.011262537541891191
1,0,-0.002943908085062218,-0.005626566605264398,-0.006033512787546336,0.011039997098559982,-0.007980813532370552,0.0033613275092388662,-0.00843223944488452,0.0020855109391407266,-0.001810626522461831,-0.007568244079438362
1,0,-0.004463627877651404,-0.008249587100568063,-0.013006599094174502,0.010986829463419808,-0.005731302589490297,0.0012031964446737764,-0.0087576803903625,0.0017919847130719408,-0.007315429029263613,0.0015385058625557637
1,0,-0.0040280362243388735,-0.007257608733385092,-0.015017453688431858,0.0061874038106645,-0.0016221082427821,-0.001740036045889501,-0.006225294448562863,-0.0004216662471821045,-0.00941599526546109,0.009718951686941982
1,0,-0.0018611151425867293,-0.003231898425103708,-0.011132270549630374,-0.0010337064264841944,0.0025573865943368467,-0.004158402588772333,0.005850262185221258,0.0002975276517647544,-0.006909306191947112,0.015495905945833308
1,0,0.0010779472397286392,0.001920257919911334,-0.0028048587318649405,-0.007438850982541616,0.005318083806393188,-0.004918309877935927,0.005643951481348419,-0.002081527123995651,-0.000927975478839561,0.014303536023524407
1,0,0.0035348585444719767,0.005882231617422451,0.006666096284642293,-0.010371238675409178,0.00599849042256817,-0.0036002000599527936,0.006369314055663115,-0.0001274050107413878,0.005577654653896977,0.008752334422546896
1,0,0.004496371034375721,0.006989607642498235,0.013492619171830098,-0.008870111727511685,0.004786048105127853,-0.0007020937613010512,0.004534062674149373,-0.0030026445356767383,0.009348953354246016,-0.0008526273805889874
1,0,0.0035968867627768743,0.004944444703253295,0.014971057165974874,-0.0039234292673691416,0.0023642593496484023,0.0025874913407893845,-0.0010442182347172163,-0.004174259488714801,0.008515242449677784,-0.012896763772756044
1,0,0.0012376094387102487,0.0008831664225283842,0.010574564415951419,0.002171445282718658,-0.0004930517698926662,0.00492324336517495,-0.004861725537913867,-0.0009700354091711001,0.003553881634738738,-0.015631299408137553
1,0,-0.0016075407343736725,-0.003206372529535648,0.0021094128736588074,0.0069304663266871215,-0.0031229972223981973,0.005379763015184771,-0.006604536559798749,0.0052565839407155875,-0.0029987484081572644,-0.01559202217712651
1,0,-0.0037955258941306798,-0.005441253901633942,-0.007070111415472399,0.008705207447450666,-0.004955466849672503,0.0038081355967176937,-0.0017919332143763206,0.007373053545466447,-0.007898120564357555,-0.01005100580229164
1,0,-0.004458523302586082,-0.004924839274638193,-0.013400165989000396,0.007182031658738907,-0.00546959792610118,0.0008370702351133537,0.0011519749340568352,0.0031406422708531744,-0.00884736314084083,0.0005640834713815263
1,0,-0.0033309808734731544,-0.002129888889577782,-0.014457682870860102,0.00327267203322069,-0.004314270882402895,-0.002433121385474599,0.0034012971859392507,0.001107769662047811,-0.005584871881780296,0.013502151353991215
1,0,-0.0008560527900783297,0.001401097878423622,-0.009856139591367141,-0.001414762462468628,-0.0015771997820638712,-0.004862602239886743,0.0035432713739708436,-0.003769114004263177,0.00010820297012753854,0.015812240892124886
1,0,0.001963457613575892,0.0038756591958172223,-0.0014016812546946429,-0.005237841381545467,0.0020190156562530236,-0.0056408064225684455,0.0009570741621175074,-0.007709278516040294,0.005402045126197839,0.0182772352610029
1,0,0.003930929452057059,0.0041604777398162995,0.007561420838536238,-0.007065830792117501,0.005229040892108427,-0.004497092902900024,-0.0010590168013609792,-0.0063707600279619995,0.007846310869339493,0.008215203876281572
1,0,0.004131277413437851,0.0023115534311204436,0.013434261661096732,-0.006553583474000161,0.006745360148142193,-0.0017577953351308726,-0.0032746693788447434,-0.005965902337882984,0.006506661850888995,-0.0008134286376963576
1,0,0.004839850814374661,-0.0005324669226445906,0.013826921083675803,-0.004102431012544981,0.005798392622234744,0.0017222606065331145,-0.0012717685985189535,0.003505283686420484,0.002292602998899962,-0.00728731588645403
1,0,0.0016591218606318364,-0.002812552685166657,0.008597459443586683,-0.0005885800488574484,0.0025685977520497256,0.004763527380973187,0.0009160142013259207,0.011313409656860613,-0.002610923649667742,-0.01659286711305525
1,0,-0.004181001855895537,-0.0033961497672335885,-3.6696268370485634e-05,0.002978186814440765,-0.0018233530641082636,0.006218218234386291,0.0001320870626864938,0.008156198731254073,-0.005870683878336044,-0.019478173937998965
1,0,-0.0062424338733596835,-0.0021463788088557662,-0.008435495154133723,0.00570983742042456,-0.005745984340031911,0.005415591975691577,0.0014038468447892284,0.0044614320337348,-0.006118774204514968,-0.013711108356809538
1,0,-0.0059311903173902185,8.692479167236568e-05,-0.013137479692004865,0.0069495079565322455,-0.00769118065600336,0.0025160338816702867,0.0022112698612981197,-0.0005295319785766109,-0.003522895190389099,-0.0035184230969431216
1,0,-0.00307688064058503,0.0020196676678575494,-0.012382084930005558,0.006296513010672728,-0.004362456344611526,-0.0014401522457236128,-0.0014902814546069176,-0.0031975749021701852,0.000423736617507607,0.009094910663550523
1,0,0.0012890954817544762,0.002680248407658179,-0.006815708111569456,0.003668541078801483,-0.00353701091248623,-0.004892946889449074,0.0004921129205703317,-0.005593477847009239,0.003731117734510946,0.020135068943529254
1,0,0.0052741537167774145,0.0019048617875777009,0.0034248967596292776,-0.0005372771345478839,0.0009804467748149343,-0.0064241856835927855,-0.0020026159225770435,-0.012357622083535883,0.004904302275045372,0.023521540218577726
1,0,0.0070112610885694,0.00031803192188902283,0.007471473692790828,-0.005280160956328929,0.0048856368115748686,-0.005417785086409902,-0.0012239810348802266,-0.01225167538717729,0.0036055391004038593,0.015060261051502584
1,0,0.0056193926198065194,-0.0011304325545035499,0.012702405728663314,-0.008937569865823416,0.006655671423882385,-0.0023661291920985014,-0.000155117697380961,-0.0031151941674037796,0.0007056451380184589,0.0014296928529747728
1,0,0.001679448665362315,-0.0017420513574821828,0.008285654421934,-0.009782956279759666,0.005708439707617675,0.0013701967286049673,-0.0005828475713714378,0.010395366927291715,-0.0022380145110416764,-0.013794663874961992
1,0,-0.003046813743266839,-0.0014084598553397278,0.005368246804349333,-0.006814648789548388,0.0026340597049512083,0.004240117263701845,0.0013397510923071339,0.015260193193737932,-0.003780752869311543,-0.020707297113190415
1,0,-0.00647568131037943,-0.0005564803515432172,-0.0035767919751405813,-0.0005415310882233324,-0.0011406927208729605,0.0052441538415511834,0.00425398828352622,0.020461352232174764,-0.0032732477241400764,-0.022023873693200916
1,0,-0.007154804576093959,0.00020551354501473608,-0.008363505622387794,0.006823324913281701,-0.004089595838889168,0.004322515892002824,0.0020456994043663006,0.009722548592313297,-0.0011166000347528,-0.011622878667860898
1,0,-0.004844217634728519,0.0004929107810298009,-0.009662480233302117,0.012102026608297903,-0.00280990478733097,0.002196351399569621,-0.003721183322144267,-0.003647683297832137,0.0015047701056377122,0.001405536389097046
1,0,-0.0005269277314149391,0.0003559740631147115,-0.007157905746814638,0.01263126983873563,-0.002351704472643123,-0.00017113588647040264,-0.005556407018880159,-0.018266301001316886,0.0032524825622964244,0.012604668529944704
1,0,0.004051537439768548,0.000178579488445099,-0.002097825922649393,0.007734914470528583,-0.0034886941225563584,-0.0020917009951218523,0.0023612305837361286,-0.0246222203007345,0.0032949306494836047,0.02083034114163021
1,0,0.007068069066899795,0.0003366426398407603,0.0032905194045277494,-0.0007089605738751718,-0.002062281837411194,-0.003316130424435739,0.0016487811159855107,-0.01647330996432959,0.0016722356396132623,0.0157199547963999
1,0,0.00729107097335537,0.0008495422005550847,0.006788774212760496,-0.00904873085423766,-0.0008805601547444348,-0.0038279907670101033,0.0002673344378841987,-0.0033178617874741368,-0.000786469044768821,0.00850876195589068
1,0,0.004544637661801955,0.0012878767407953121,0.007147107696800108,-0.01362008153010513,0.0003424034887689793,-0.0035472163936451123,0.0004453954496639069,0.01147986308260658,-0.0029067504702881483,-0.0024102645001150705
1,0,-0.00017981543352509633,0.0010501157414528825,0.007062415526235634,-0.012517914365209246,0.0020020362416113607,-0.0022733619855956895,0.0008491476957857012,0.022053428976173087,-0.0037245503518470507,-0.011389618644209844
1,0,-0.005038574121096678,-0.00014087190110579592,0.0004312119514347048,-0.006424078843796281,0.004001005479475847,3.320759250813517e-05,-0.002487265938584484,0.020499600626768123,-0.002890292554194629,-0.01355955863499424
1,0,-0.008012281823938957,-0.0018705717546198216,-0.003426515388977323,0.0018817829647510165,0.005508215514106281,0.0028718434408924643,-0.0006041916752081276,0.012459270548266883,-0.0007665368630938191,-0.010831540788512641
1,0,-0.00772324493251238,-0.0031205842359910683,-0.005595202318742807,0.008952420142667167,0.0053184075428633504,0.005134124417347048,0.0021156124725297096,-0.0018078584540696448,0.0017765647709124962,-0.006623635729702267
1,0,-0.004081489999851017,-0.0028591366313911047,-0.005568173050777595,0.012212172053804751,0.005136322932599292,0.005576030881650859,-0.0001717362194024179,-0.013652939264862392,0.003731655942775627,-0.000702664288865609
1,0,0.001535530336208546,-0.0008017776931989835,-0.0037597125686643596,0.010852309717840621,-0.002216981603001869,0.0036115610145196412,-0.0006919855531030721,-0.016727045630013822,0.004315579064195833,0.004772194402644558
1,0,0.00673419976370632,0.002197854504760535,-0.001097437553081574,0.005822993430594588,-0.007614714672370484,-0.00013857335053375503,-0.0006264693415758384,-0.01677112746117341,0.0032140525746003176,0.010127409650538674
1,0,0.009107935013110496,0.004493220856084918,0.0014806723009271072,-0.0008234400971149238,-0.01112023156854117,-0.0040203702880136855,0.0022495419578766373,-0.012243596738191899,0.0006945003632115034,0.011830473494414805
1,0,0.007403483182553521,0.004600566256467564,0.003310181770879088,-0.006781999124283394,-0.010571693572255403,-0.006212039682712678,0.001846746496595353,0.0018645174440721746,-0.002409947202035326,0.009796145296687101
1,0,0.0022527625553674067,0.002174654271244695,0.004022155857180651,-0.010203579426847824,-0.005299118238122326,-0.005727427290040559,-0.0015396075730840263,0.012153887601755804,-0.004890979377777097,0.0025355693774459774
1,0,-0.004010782587526046,-0.0016587239258879693,0.005968740491425703,-0.010142474521279785,0.003200354918744151,-0.0029015603785453262,-0.001974126892485992,0.015622176322592173,-0.005575715538359085,-0.008431269021381083
1,0,-0.008449738516288382,-0.004876048679505492,0.0017053358859886376,-0.006739223334950374,0.011591606588617628,0.0008987887073284679,0.00048638232651652616,0.015150371450021764,-0.0038779151760789674,-0.011427298746359312
1,1,-0.008973830017327478,-0.005701564498436713,-0.0009124061511706342,-0.001147381083755569,0.016017547670213916,0.004054656775649805,-0.0026332298587660196,0.012283041303842005,-0.00023434587700393067,-0.012078704355833933
1,1,-0.005360436391692885,-0.0036211173364533587,-0.0036213060602613514,0.0047913968996280065,0.01388929940070984,0.0054383529360273256,-0.0027303478856181155,-0.0011003263499204277,0.0038879434594476995,-0.0025733396548534757
1,1,0.0006740031180327247,0.0003369380148914402,-0.002893379741462975,0.009083928242519582,0.005331839919519496,0.00476480701311812,0.0010379570044531871,-0.012684694880505444,0.006560386709458183,0.002238214001942643
1,1,0.006330828053473355,0.004178566152416479,-0.0053991514498566194,0.010222847646551708,-0.006486423988491339,0.002520475238204149,0.0052984547904644935,-0.019127984621509615,0.006346182526516521,0.005673894163273937
1,1,0.009036921648323338,0.005999627194487479,-0.00347231491071647,0.00774050219458984,-0.016478450457620114,-0.0003610674379858154,0.002949259524691336,-0.014221010484045848,0.003141380548367676,0.008677135786607528
1,1,0.007579559606460584,0.004926306190242197,-0.00023903699583989682,0.0024612802582503366,-0.01987155994850043,-0.0028858019152404905,0.0014022373202857694,-0.004633056609661194,-0.0016293640377657273,0.007801338171520336
1,1,0.002607251796190248,0.00148964603285966,0.003107010347458342,-0.0037112705625735125,-0.014568801790375781,-0.004313274603435101,-0.0027436665445419966,0.0037859253717465904,-0.005668879595160683,0.0006988684499913135
1,1,-0.003654627084957074,-0.0026789843110051233,0.005245604798363747,-0.008469150089714064,-0.0024364636270362426,-0.004326648398802462,-0.0009491196906546932,0.011942442682328403,-0.007000298347305677,-0.004758048252253637
1,1,-0.00833776367011555,-0.00562970502647325,0.005256342296897467,-0.010007081096014784,0.011284297264392165,-0.0030469207047165076,0.00031805229954952834,0.014625646612467017,-0.005019072155057892,-0.005051676270048426
1,1,-0.009174721781601409,-0.005981200912982825,0.003054897721144159,-0.007775687145906047,0.020331164202552866,-0.000927722693773621,-0.002770364122978272,0.011917215507209936,-0.000792982687812675,-0.004191952371624393
1,1,-0.005578486981306068,-0.003532977652237165,-0.0004704444349004577,-0.0027219095077541202,0.020446798449450205,0.001408449112124514,-0.0034435104835951543,0.0064139355728383,0.0035457510917993058,-0.0018703335696270247
1,1,0.0009394689278526021,0.0006463258635914072,-0.003763939397956635,0.003116456730180511,0.011513522454644457,0.0033347481055486503,-0.001895009771476709,-0.008100398967582334,0.0059378242387801376,-0.000927196233695258
1,1,0.007315510244844543,0.0046799504457495375,-0.005299490401733275,0.007481057816247738,-0.0023632789664504703,0.004349974687715479,-0.0002563812890346397,-0.01880088252940474,0.005411178244054667,0.0024963882671779373
1,1,0.01032241593738094,0.006692671100057968,-0.004362541586295825,0.008818612497214145,-0.014875821808901277,0.004165458458625729,0.0034822231574229536,-0.011927615451983727,0.002451489303227103,0.0025526814752741067
1,1,0.008206914745706792,0.005638226558820033,-0.0014729251491246217,0.006844762211687798,-0.020550441428028653,0.002757022390075727,0.0022768440908151103,-0.0054761745868103975,-0.0013770526132557367,0.003740185564801761
1,1,0.001744670639976996,0.001812310247038327,0.001851628597254176,0.002541244719676198,-0.017232468407909613,0.0003912254930581934,0.005383347374743577,0.0028898086369827515,-0.004259987553055121,0.0013105558947506674
1,1,-0.00593913149186601,-0.003181090953204076,0.00391128883501633,-0.0023333648191024015,-0.006853789995348229,-0.0023793039671732496,0.0038743710822176825,0.012491792336826237,-0.004953970109598831,0.0007536190925783587
1,1,-0.010853133364210243,-0.007060245148390201,0.0037658919486585614,-0.005958248200391385,0.005730998628880983,-0.0047775923097846465,0.001643442799264354,0.013440301743588345,-0.0032629478265632566,-0.001980791450624364
1,1,-0.010255213736527994,-0.00788837266767228,0.001743001064572634,-0.007112646128172158,0.015113824606153674,-0.005956020917098622,-0.004718673340213873,0.0076076613111593005,-5.547306278884379e-05,-0.0013505888346656766
1,1,-0.00425060354974423,-0.002562693422441135,-0.0008022811362768948,-0.005581243842962122,0.017703060975659934,-0.005255321368451663,-0.007523695686084095,-0.004009301128840322,0.003122529610116002,-0.004738099632263455
1,1,0.004111464367502421,0.00022923062251439,-0.002337383826946271,-0.002180072584702249,0.013039398861435533,-0.0025226478750180843,-0.004432216590323285,-0.007174760377580074,0.004703529758059886,-0.0008071797678506664
1,1,0.010410487001483806,0.005461896514698797,-0.002090449330380325,0.0016186982302933684,0.0036276784473320382,0.0016413769755336514,-0.0002264858476986992,-0.009211929826898895,0.0038203875486075667,-1.1121052328339869e-05
1,1,0.011265503017798587,0.008034925239750081,-0.00048688563954005844,0.004330339823096088,-0.006421688074016556,0.0058898817400105715,-0.0021786765448871047,-0.006424561285070238,0.0008048969842881512,0.0019277425029232136
1,1,0.006216333889482158,0.006645214544690337,0.0011934329155196789,0.005084160587787486,-0.013193427862930956,0.008515162243504995,0.001998460242014977,0.0011751857624795795,-0.0028456728094059017,0.0028981728928835194
1,1,-0.0020100681934570727,0.0019703651832906183,0.0017056680630231835,0.003924560812920712,-0.01442826823319571,0.008142054685314128,0.0025942968110721112,0.0026603031523106543,-0.005152480031648262,0.0011732470213164318
1,1,-0.0090051652100944,-0.0036863944578075015,0.0006765430035566887,0.0016471696509436275,-0.01015524615010504,0.004435829072028731,0.0012112543229317546,0.001287828355606935,-0.00472103250806987,0.0003001212091877315
1,1,-0.011100121660548759,-0.007573685509836243,-0.0011680721142462629,-0.000698847338255667,-0.00241286677359998,-0.00155138397636475,0.011353577290728464,0.005619193480128103,-0.0015927763805200698,-0.0016989861405316469
1,1,-0.007338160305807834,-0.007861665989339342,-0.0025135319023621865,-0.002325203242959178,0.00569337851583755,-0.007632626119474122,0.007305700290336983,0.00625147763760513,0.0026766192008017367,-0.00023889843237966614
1,1,8.836819824887111e-05,-0.00450298352165595,-0.0023367892692839733,-0.0029486586992881893,0.011185167334904609,-0.011292027606971426,0.002764504656716377,0.003859363989460721,0.005821384725089825,0.0034757567423544513
1,1,0.007130830099223353,0.0008160675749335459,-0.0005698908022166269,-0.00269644782071644,0.012239844157162122,-0.010735274227546415,-0.009838925121011234,-0.0030631259782022513,0.006099963855173418,0.0005557481063189749
1,1,0.010126076899488015,0.0055602152774665535,0.0018590746141811758,-0.0018427769794316083,0.008738041201343461,-0.005746846659434659,-0.017110849104662304,-0.00660182410426315,0.003240282742006666,-0.002283654415111018
1,1,0.007717685740122714,0.007589070100940142,0.0035921097183551267,-0.0006233890367259766,0.0021860646182953595,0.0020371101207564434,-0.006624863875894797,-0.00421585100329388,-0.0014233490953818064,-0.004619132283018226
1,1,0.0014409317327177772,0.006137586799076937,0.003631909992536685,0.0007550147594670541,-0.004915026708671446,0.009626981658108213,0.0027464805710295755,-0.002966568634616726,-0.005648443434286648,-0.0025709099773560946
1,1,-0.005252084391194509,0.0020782565059392164,0.001880814143052229,0.0020004376052351726,-0.00998560085483776,0.0138301989423626,0.003143428673310952,-0.0004930637835688287,-0.0073994128248855056,-0.0014528842625705955
1,1,-0.008907270277013971,-0.002604954556903339,-0.0008486663360002426,0.002702500231135266,-0.011233477026748019,0.012627843539576534,0.0016633312062516753,0.0004145814911825415,-0.005803436934051683,-0.00029494520402433656
1,1,-0.007858555579089169,-0.005810739610774439,-0.003297984245275374,0.002482141726981813,-0.008225552947489737,0.006173577924206582,0.0053266099958995325,0.0013257551459304605,-0.001518479174167858,0.0031574698147408815
1,1,-0.0029677550884416046,-0.00627221032183593,-0.0043978742967384216,0.0012501468343338637,-0.0020524493445536105,-0.003108126614156604,0.008576865592543564,0.004051399047317006,0.0036012813073389477,0.004817861505597544
1,1,0.0030081970909799356,-0.004036172566411571,-0.0037293935209050098,-0.0006194254627261862,0.004968578822729021,-0.011466574505638455,0.008276088447998589,0.008075738084305586,0.007344996140539869,0.007824072892128065
1,1,0.009482397561681483,-0.0003086656516793015,-0.0016180005672071038,-0.0023684632485396055,0.010061420511594334,-0.015423089836067475,0.002510980238795334,0.003326395954257424,0.008099692827729384,0.0038373835869871236
1,1,0.00711186513515752,0.003189141745282043,0.001104810800919064,-0.0031918417999194904,0.011070491164384667,-0.013273432950897281,-0.006629302856790794,-0.002777828753424201,0.005512359450340889,-0.0024148000039578912
1,1,0.003592046685016959,0.005010232918800102,0.0034798186375552174,-0.0026500813976953618,0.00744304038523461,-0.00580500127273834,-0.01031233373443898,-0.0077134253059678295,0.0006036826625511549,-0.004581795626579298
1,1,-0.0016119825225848442,0.004558486194060436,0.0047358579785665295,-0.0009104722792041708,0.0006052500945720776,0.004043270573374433,-0.003467109845107817,-0.006204990153142578,-0.004675581856329089,-0.008177793846919882
1,1,-0.00588394895039229,0.002247157898158945,0.004452432651395437,0.001317551404603807,-0.006556709169435315,0.012374905001138642,-0.003124035768326978,-0.0026860851661495862,-0.00823268176264158,-0.008877555349999285
1,1,-0.007287580870123762,-0.0007650016817125133,0.0026100377586226083,0.00309641138052606,-0.010940884774060014,0.015882447348321223,-0.005673628600443771,0.0032611616518210284,-0.008647632359239512,-0.008351639908981575
1,1,-0.0053911957770831935,-0.003116936358509156,-0.00038556699410243487,0.003652475249240709,-0.00814068948478177,0.013161125631894754,-0.014389459455850512,0.005211254499997684,-0.005717887065790102,0.005220800847428696
1,1,-0.001258384314831067,-0.003846054422670486,-0.003693077719327519,0.0026857754209949217,-0.00585809050102918,0.005289149028987118,0.008516340062777097,0.003682956144362113,-0.0005401237870677882,0.010055794732003345
1,1,0.0032221696663588687,-0.002797349682115413,-0.00614126057746358,0.0005020310727190573,0.0011805924580059108,-0.00458270385261562,0.018906137801400925,0.0016214590106765783,0.004909027714096535,0.010757329097760155
1,1,0.006218906428229785,-0.0006472537143313938,-0.006565542853220374,-0.0020767304859731894,0.007306392993069695,-0.012511129261802763,0.019947383451653856,-0.003452560844846089,0.008547874361958653,0.009567128862932706
1,1,0.006632458522241801,0.0014788058893548566,-0.004341203285222187,-0.004012224462753777,0.009884437685411912,-0.015396829625039155,0.010049323069040458,-0.001917062192629258,0.009015714953586773,0.002948260213752377
1,1,0.004379108218053319,0.00259360919075574,0.00012992173639128727,-0.004462620389587658,0.007942501169366852,-0.01226129217386919,-0.0034551590111692914,-0.0022673853917413948,0.006198226420278035,-0.002968537394598553
1,1,0.00032764783607754875,0.002318745006388573,0.005308137176933904,-0.003135799316181671,0.0025125619147072084,-0.0045859372022485235,-0.016456783828601825,-0.0010245274052464223,0.0012212400491092438,-0.009683894316749792
1,1,-0.003992838175404712,0.000997347545699674,0.00897811930669124,-0.00042704942861168514,-0.003881010639235015,0.004421082228748284,-0.018267606835532642,0.002515431663828734,-0.004066951601765685,-0.013225971701643583
1,1,-0.006857641497268778,-0.000570810158111281,0.00919260519144928,0.002709583037712261,-0.008337035869295576,0.011252314008994445,-0.02187775791796456,0.002665573312406789,-0.007854270258400376,-0.01109659230671794
1,1,-0.0069581270882710855,-0.0015855187626896566,0.005302851692867355,0.005093906651871845,-0.008843400910612528,0.013540477996919417,-0.014590687325071058,-0.0005410921201692265,-0.008996315747974572,-0.005377834556014419
1,1,-0.004018812093084773,-0.001635293655522799,-0.0014692362205516178,0.005737019612633381,-0.005184145338475811,0.010874490661810355,0.024964157107712596,0.0044836628562019845,-0.007274995111908108,0.0038103485941075837
1,1,0.0008930099060669183,-0.0008368966398213544,-0.00833275300968935,0.004216992349251167,0.000921727078814089,0.004704153831545193,0.02350896276878545,0.0007975219953661229,-0.003291999549080293,0.014700530050002502
1,1,0.005668481190618085,0.00030038178556359574,-0.012104381187539301,0.0008932672951019907,0.006574490292700506,-0.002494598605925926,0.016399757347450236,-0.006492601421184698,0.0018083973592512305,0.01813437536275606
1,1,0.00807190040791059,0.0011695640932898057,-0.010751923233922604,-0.0031386818976863445,0.009049007660727134,-0.008292817256196384,0.007522532225010312,-0.006574226954093261,0.006607201436002239,0.01200594542617356
1,1,0.00685722122186741,0.0013537807848159977,-0.004507494188428713,-0.006383167833821955,0.007115011528823972,-0.011099519638372544,-0.0027672331177115528,-0.0020397128989282157,0.009649280974749326,5.230040305783956e-05
1,1,0.0024692779739489924,0.0007892320574628168,0.0040887366650260125,-0.0074843071243394016,0.0016545833106242148,-0.010425834876456362,-0.011591985099410188,0.002398923848187142,0.009753721943238031,-0.011291489306301545
1,1,-0.00310229021140514,-0.0002305631408241734,0.01129716261966572,-0.005779090765362429,-0.004748063312753621,-0.006728722034575498,-0.02535129216069473,0.00357639109038558,0.00644758946665533,-0.01672965461881654
1,1,-0.007276640515117331,-0.001186912878167329,0.01389422466969359,-0.0016451574871755499,-0.009043922430598194,-0.0011125861706043425,-0.022473816579511197,0.003127193195280464,0.0003881116379232008,-0.014790991500731526
1,1,-0.008144106219868918,-0.0015599001056167943,0.010637809874755435,0.00352049101953957,-0.009173858905613046,0.0049217492944453305,0.010261653329470875,0.006860365494195185,-0.006527145711811819,-0.0055391056856822305
1,1,-0.005374363020535984,-0.0010800849816196153,0.002803262861142464,0.007744654707112638,-0.005036079691297367,0.00970030579590403,0.01824276955605673,0.00809776357582479,-0.011637134815047386,0.004950158925663902
1,1,-0.0003197671050751509,8.933591879797971e-05,-0.00638545346140298,0.009236549295797335,0.00397125043311203,0.011700346600943217,0.009390512851340568,-0.0027449704106248226,-0.012572567796321052,0.010842514584285617
1,1,0.0046971637388622525,0.0013590445802541546,-0.01311093015493487,0.0071802642335246315,0.007316653438551076,0.010014303972902401,0.00787426421808147,-0.010506972533479887,-0.008462970521389963,0.014526410635283812
1,1,0.007512490115619138,0.0019793575848856613,-0.014526966648453028,0.0021889913962019553,0.009743742466166088,0.004800124382542224,0.0036409652239327303,-0.01035918253005504,-0.0006150858596528514,0.007636349189421563
1,1,0.007087167256564784,0.0014834544951377482,-0.009938240078719605,-0.003852383807693017,0.007602120554499052,-0.0025404776622268404,-0.004928838131548426,-0.008424401747268637,0.007845183515264972,-0.0018182860828338415
1,1,0.003852646271890451,4.691973472777595e-05,-0.0011411154449776128,-0.008546329109787738,0.001903359057661837,-0.00963979437627846,-0.009092841978863755,-0.0007806088532748339,0.013313563249201903,-0.002838234514917578
1,1,-0.0006735802195294721,-0.0015288801640924122,0.00825485605131975,-0.010012035579979473,-0.0047063597111089515,-0.013886072123569392,-0.014754873524982705,0.007949391467853197,0.013385000114462944,-0.00463418031599907
1,1,-0.004717370971936514,-0.0022797515555821393,0.014310994095481944,-0.007693972620919887,-0.009251145018556044,-0.01337751137172388,0.002697564558279619,0.013025426729662453,0.007998444478372965,-0.005787481767646248
1,1,-0.007024282690451325,-0.001710281389935008,0.01444897461575341,-0.002565564180826053,-0.009828826583762449,-0.007769585513343125,0.005301557959034945,0.012243596559238873,-0.0005369694065053807,-0.005477987962946629
1,1,-0.007186604769491186,-0.00014056529265645709,0.008592629705564485,0.003345309234829085,-0.0064164324963491785,0.0013413138803987543,0.004573534752573166,0.002359767026619496,-0.008620181190517053,0.0026494064334556798
1,1,-0.0054593095351367915,0.0014992277126607651,-0.0007764073027494064,0.007845877227460465,-0.0007105682013976095,0.010747788352234935,0.0061874409171076995,-0.003931639357768239,-0.012973525805379586,-0.0005172275971482814
1,1,0.0025265787408531486,0.002275150347811771,-0.009695414338910736,0.009440378704274848,0.004830640887833849,0.016695147515244195,-0.0002699196438200829,-0.00989526013692154,-0.012016606299811843,-0.028054265719963275
1,1,0.006311027195065445,0.0018116792318074678,-0.014453127496815005,0.007790806259437853,0.008161197678332543,0.01638741774733537,-0.0008670787590132146,-0.016097537784534714,-0.006414809171935725,0.012821982225915842
1,1,0.007432420601827539,0.0004437803323054027,-0.013193903891009691,0.00366326508610509,0.01089285008897383,0.00935188231048243,0.006100602356657143,-0.0013698161340938927,0.001347427353802666,0.03742378245066548
1,1,0.00682261891614176,-0.0010624659100614562,-0.006661149677423316,-0.0014857652359959155,0.005816472171470953,-0.0020243657421594244,-0.012698009363332883,0.0034148152620574837,0.008095414200114866,0.013530573667745667
1,1,0.005569623949379896,-0.0019628596781104406,0.0022436229464974484,-0.0060256474229490225,0.0014571388956611993,-0.013224058015074576,-0.019633356721173643,0.002828675987621217,0.011279347868932888,-0.011347711762571303
1,1,6.112874351189027e-05,-0.0018861352062611205,0.009828015335620116,-0.008591807016684645,-0.00337202531903499,-0.019445491792181704,0.00798289564436002,0.0031480126723238285,0.009937840098109198,-0.020540732497742166
1,1,-0.009788091584474544,-0.000956748735081582,0.0132034674965361,-0.008405088781839983,-0.007343451300586342,-0.01777248713835868,0.013741339988768789,0.008556827060970445,0.0049456115892404316,-0.01393697105649891
1,1,-0.017576020110076467,0.00030889954097885954,0.011364845355895938,-0.0054786727725224405,-0.009305434662520156,-0.008605558573992563,-0.003901172327305286,-0.0003743640620085694,-0.0015016797703267838,-0.004116375294427189
1,1,-0.005523034739256907,0.001275483429246453,0.005364900505698349,-0.0006750586045263372,-0.008501548758314234,0.004384073252606111,0.01346720773931945,-0.000722225823006379,-0.006875094792198069,0.006461738737342041
1,1,0.005896699322081569,0.0015229146630560805,-0.002318895330147818,0.004472179393980287,-0.004846751803212861,0.01578415801211383,0.014328707657592017,0.0038831342772312925,-0.009301737835097244,0.015101255964911487
1,1,0.009253161814220695,0.0010701980108569304,-0.008813215953931981,0.008205978599114103,0.000854947688255062,0.020761527493024852,-0.002060613421449434,0.004317452698222046,-0.008158669365472666,0.01229302124053189
1,1,0.006553485117905726,0.00033147839321376695,-0.011841606760184746,0.009155749719049703,0.006938444386308654,0.017149649318448652,-0.014830438419909062,-0.002365488094072741,-0.004127023657413007,-0.0023153396663894675
1,1,0.0023416311683146203,-0.00019449383443686412,-0.010416000168233389,0.006879548968038803,0.011262331509935601,0.006402569424266521,-0.018771539549043124,-0.01028259569663039,0.0011863022479369019,-0.027030955551583923
1,1,0.00026677557098737546,-0.0002888367190615379,-0.005121969199828121,0.00209750024046594,0.011914823549470533,-0.007002130742531858,-0.013502942016102705,-0.010959485454273214,0.005839520328474244,-0.0062310637055016105
1,1,0.00034136401490133356,-0.00014944073431052664,0.002051370398179986,-0.0035121037254559864,0.008050633179338278,-0.01746544309893426,-0.0082248507884409,-0.002638399586207856,0.008172281631013672,0.013809433680268879
1,1,0.00017701001144602033,-0.00018568379058035906,0.00835927614765784,-0.007903352729652542,0.0005231432140824858,-0.020651227676370502,0.01060860947177481,0.0005106599560783798,0.007333556759514286,0.0152709403706403
1,1,-0.0032893561742921,-0.0006339948321321252,0.011315469715122596,-0.009425335735919327,-0.008086404479512794,-0.015311599916431086,0.018828903476699545,0.0061309429645185765,0.003617291367075474,0.0027084854819270543
1,1,-0.00555614546535123,-0.001307760748331927,0.009726358947222511,-0.007464926145615736,-0.014279051398682907,-0.0037700604445314915,0.0270927644278619,0.009162164956061793,-0.0015407695191303795,-0.005491143964591278
1,1,-0.008372699395477162,-0.0016861670349434372,0.004263385264107982,-0.0027160300103871173,-0.015106554371157705,0.009115217388437498,0.024741279567354564,0.006384868716103089,-0.006026709434585845,-0.002333406227828394
1,1,-0.002295871919410439,-0.0012746146717748455,-0.002763008915070469,0.003043949078412723,-0.009659414777226224,0.018027774839413382,-0.004701393942435308,0.0037925027962766463,-0.007907075222126128,-0.0024155277754395812
1,1,0.003627629448240045,3.0199130219843612e-05,-0.008383412459421572,0.007606799036940661,0.00022774349248843345,0.019410192971259958,-0.034353797213487275,0.0031446088611126895,-0.006340291908708558,-0.003188243323763947
1,1,0.007500443753132489,0.0018118935741599856,-0.010277012526770253,0.009179613653782,0.010548849446547165,0.012896056746746702,-0.03300373547291839,-0.005155313189280068,-0.002051776865706036,-0.00025134007095521844
1,1,0.008024402346252572,0.003296466685092375,-0.007806691461010774,0.007091183353374454,0.016828448525092007,0.00137730951034114,-0.017729558673920936,-0.005252203319483848,0.002956368072830697,-0.0064627876702135585
1,1,0.0050984804600351635,0.003691930104686268,-0.0022850834919173942,0.0020606599859559842,0.016181234827038156,-0.010294334207704179,0.0028936573163607757,-0.005207693449436509,0.006372882046482468,-0.018431977760378398
1,1,-4.137271664621767e-05,0.0025486238619367666,0.003682099271009926,-0.004082582381094684,0.008715174528304748,-0.017390138366281106,0.015083433764817935,-0.008250090920813616,0.006723805453839041,0.017917461937102405
1,1,-0.005219421137825092,1.6505871370577502e-05,0.007469602023181247,-0.00659564765539529,-0.0024429720712329656,-0.017255329866511782,0.031844112155952134,-0.0036331211315916725,0.004075361633739967,0.01789686588026295
1,1,-0.008152866555627363,-0.0030942099017560176,0.007672325035655475,-0.0037859500366640817,-0.012537183549803524,-0.010298506551548983,0.019699232299786158,-0.0037239367614389338,-8.164476709192682e-05,0.011629667005434548
1,1,-0.007438179391906443,-0.005519513955299751,0.00466804881156305,-0.0048495727485954555,-0.017315940329511968,0.00034475243753153903,0.0011460733028961355,-0.0025521206331644577,-0.003676412829947866,-0.000984953091593327
1,1,-0.0032683824675010056,-0.006014880048524496,0.0002471394168547116,-0.005581005602536573,-0.014889732721554912,0.010245338931034987,-0.0009622167108310703,0.012946545030751001,-0.005141710235438721,-0.014741878189828816
1,1,0.002519592876059358,-0.003957323573022498,-0.0034248134158486087,-0.00035754131676089216,-0.0064734769213725596,0.015548565569222456,-0.013184038600065876,0.016819614444687273,-0.004140610031011031,-0.018304119714071497
1,1,0.0072081900359939706,0.00019935798789167216,-0.004909830485231038,0.004185234360901669,0.004249586445467892,0.014488000381627895,-0.01881353213480449,0.012875274928526841,-0.0015775891328677588,-0.002473018836627283
1,1,0.008494565340431076,0.004912176933776624,-0.004085007196242007,0.00681223461371032,0.012776984722868867,0.007944679372727876,-0.01583522561094769,0.0038736465774901314,0.0010422485114151457,0.0071054050168687394
1,1,0.00568429693523848,0.008105977168131984,-0.0019627516755085076,0.0069713126534902215,0.01817879473115971,-0.0011200826792292532,-0.010455276666453475,-0.008767908170884627,0.002489522876814615,0.014695097109238506
1,1,0.00011025181908909336,0.008118949768225333,0.002547270070027255,0.004778582280007343,0.011934892371718927,-0.009028635664052258,0.005328003796699094,-0.017945781118529826,0.002414658094779656,0.01355835427836987
1,1,-0.005518715408450031,0.004584498795299279,0.000934485215466675,0.0009318454260148619,0.003270759880441143,-0.01289415694268395,0.017129376351644306,-0.014064484569408299,0.0013702315675961031,-0.010487809390753682
1,1,-0.008520834679398716,-0.0012428877547243772,0.0005513116617357419,-0.0034102509645355366,-0.006569469745490583,-0.011639936364788892,0.01336418459911632,-0.008479602066371902,0.0003045927587277475,-0.034340700308799044
1,1,-0.007618385140199491,-0.006950839398610395,-0.0004006346640871889,-0.006821068885267596,-0.013395614554246421,-0.006205121525482096,0.007539653288398855,-0.0025440788982150587,-0.00010703371647153227,-0.005586770449959172
1,1,-0.0035174266864448013,-0.010031386584801034,-0.0008563993013702854,-0.007958913900204355,-0.014389874621099018,0.0010194153601657957,0.005914202137905431,0.0034099273376654903,0.00014286383359284044,0.026217675287145654
1,1,0.004089516516319137,-0.00902669341340374,-0.00011050899398556109,-0.006088863095312615,-0.009331171194831669,0.007219790500658037,0.004797065072888088,0.013925630681919356,0.000495481626536726,0.020892094588800068
1,1,0.010107958032962088,-0.004208961788026345,0.0016465550865037667,-0.0015753435252552936,-0.0006392803087472699,0.010234584006237134,-0.004842797893352915,0.020605085746570804,0.00030244884350843126,0.003994392904320822
1,1,0.008204696965336634,0.002505791117712398,0.0033191393437687704,0.004001377632462881,0.007772867335046255,0.009280661036663118,-0.015483971032733537,0.009839907740354138,-0.000668064756102121,-0.004976288011976723
1,1,0.002968295065039477,0.008351872859398512,0.0034993377149665967,0.00834067067313624,0.012292672485510685,0.005085565253594873,-0.017370167676807748,0.0034291324459782345,-0.002017863041645418,-0.002673610786166397
1,1,-0.0016025168606039698,0.010870682835306102,0.0013980187258574037,0.009411879724255659,0.013690783539814831,-0.0005596084363205237,-0.011883755854450926,-0.008005401579691837,-0.0029105312967986846,-0.002114412306823735
1,1,-0.005787676344703241,0.008954412675113084,5.0504038177040505e-05,0.006471636744423361,0.005255072591877897,-0.005563625294088731,-0.015162508170735816,-0.015682010976330308,-0.002550288897951478,-0.0130685193391678
1,1,-0.007622850259881072,0.0033407505510808567,-0.006250441981151794,0.0005496512892378099,-0.002711843644580705,-0.008262379730204179,0.01650000730651185,-0.016866838253125967,-0.0006930873763896171,-0.02623271936465792
1,1,-0.0062964109956984236,-0.0036705641334136745,-0.007845577802112319,-0.005909263725187886,-0.009185056079072558,-0.007872286284844793,0.03794360769198302,-0.007996307798005298,0.0020807715121387437,-0.02955527352037922
1,1,-0.00242323448223457,-0.009179630541113822,-0.00592308518558547,-0.010113888294499336,-0.011446088754460479,-0.004628719481355343,0.02917548519976051,0.001633536343637401,0.0045109090582477075,0.03419321089637188
1,1,0.002349954481500176,-0.010912647919896608,-0.0008844977448893613,-0.01018586592609827,-0.00872637110985241,0.0003182982792160871,-0.0023859361921514475,0.009868270924544604,0.005216865879322624,0.04006927539633694
1,1,0.006123725290719753,-0.008172454638618614,0.005163722734491882,-0.003514165705841067,-0.0024602063525429566,0.005199401611265032,-0.027623602205326992,0.007573674606665043,0.003453218773503813,0.023194699029678547
1,1,0.007509220263206118,-0.002110772256282839,0.009379698737944465,0.0006567941914134301,0.00444811323430103,0.008119908438528476,-0.03657200752392082,0.005788701531183563,-0.0003284522143343313,0.0035806510946788015
1,1,0.006075593607252426,0.0047667751291650155,0.009610528305927566,0.006964243555124606,0.008977586030687552,0.007722898418926702,-0.004708836463299909,0.007148563981065018,-0.004491871668051706,-0.009264878350898282
1,1,0.0023958080615222163,0.009633901591942566,0.005487950475263285,0.01019584666686061,0.009326614358310063,0.003827188138274779,0.023777588563224608,0.0052294213305284065,-0.006925399915322714,-0.02394767522466161
1,1,-0.0022210054902474822,0.010493570094179498,-0.001361132797734446,0.008984982458641879,0.005623736362734912,-0.0023012381017580986,0.01722849063320053,0.0013157376300639676,-0.006153717235584352,-0.02795946056942116
1,1,-0.006168149920981259,0.0069947969916359844,-0.008035885175159376,0.0038885569577559605,-0.0002682893690271763,-0.008309342997331758,-0.003758838610219191,-0.00607863051492042,-0.0022468973078451234,-0.043343356890930086
1,1,-0.008034105299157834,0.0005906781861313967,-0.011611186964830494,-0.002871773943017561,-0.0032083722877709105,-0.00919620391817066,-0.018395044503817983,-0.01612117752885896,0.0030396568472416527,0.005818866762657688
1,1,-0.007052629322478127,-0.0060427146523755835,-0.010347075581269785,-0.008396718899723184,-0.008509587672701923,-0.0035611843947943905,-0.010651601072035433,-0.008349399400132473,0.007064741211494324,0.034506280277363424
1,1,-0.0033989767411397548,-0.01010925669519169,-0.004404255984426081,-0.010395036941210165,-0.007818695099176142,0.0009732668572413687,0.004825852280441283,-0.0008920206240633916,0.007677160718140597,0.045348042623305454
1,1,0.001783844309253597,-0.00986908957048564,0.004135016628081939,-0.008162617922679694,-0.004264518233138107,0.004691221537030532,0.021543440864139257,0.007811609416312807,0.004430933423756608,0.03144462858078473
1,1,0.006690898544028158,-0.005392635505203582,0.011885581154242063,-0.0028059154849712853,0.0005026608255879287,0.004816219990097633,0.01621092543533627,0.0030063072409737515,-0.0010779881428646335,0.0028987890788569315
1,1,0.009443482773365711,0.0014344803954776167,0.015171468816924768,0.005802775411180604,0.0045482390603233894,0.006500401939463063,0.0033844061311174185,0.0027093191480723976,-0.0060120596075771675,-0.02551107995834639
1,1,0.0087869391935502,0.00767656008690169,0.013565061318406067,0.012317688412930478,0.006400771241723041,0.004431928820394013,-0.008091464363885529,0.004287228333186015,-0.007818004933644693,-0.05423742987752246
1,1,0.004649682927895937,0.010590491785095267,-0.0018604093888199486,0.009707566731085977,0.008060710633509386,-8.600421222306937e-05,-0.02291921492077813,0.002584276665179164,-0.005609079630384521,-0.045921023459134264
1,1,-0.0016766931595109252,0.008840140654047295,-0.018187058854794894,0.003835820545295504,0.0025767035020145862,-0.00485207030482474,0.0017133685158932537,-0.0012172651248395163,-0.0006127724954716945,0.02931960934840659
1,1,-0.007877819392827714,0.0031433033079478184,-0.030294083644828763,-0.0075772134278931525,-0.0012680910400352358,-0.007771571140648285,0.004278491585999096,0.005766837580975748,0.004538200218622162,0.030034367737747304
1,1,-0.01144131023906117,-0.003987613952384127,-0.004320593528841368,-0.008098109254583243,-0.004464574204460081,-0.007605574099623231,-0.022214818533161245,-0.003173439169314414,0.00722223701072869,0.0003977320861536492
1,1,-0.010705617459718564,-0.009350453602830367,0.018461774620139634,-0.0017142757538569232,-0.005835705692226624,-0.0043123188181775985,-0.02247314580264509,-0.007670767410898968,0.006154961461949077,0.02760989104032528
1,1,-0.005688648167091436,-0.010518498123154332,0.016415625607165196,0.00029634576816641627,-0.00497653711710872,0.000993590642493315,0.013937105629989986,-0.0029229231515958,0.0019624650412926664,0.01890436857369366
1,1,0.001758711936289444,-0.00697054110570553,0.015825843634238022,-0.0024646716397698385,-0.002377488662509391,0.006394428698264623,0.036620984303721786,-0.00546124401242315,-0.003205067144658518,-0.0011659498955469993
1,1,0.011148506546814013,-0.00033433315828643845,0.008305280816049856,-0.002101785967579551,0.0008266807654301322,0.009773782507778054,0.031220911834803296,-0.0018646896721624773,-0.006752595049650825,-0.017852929327609998
1,1,0.014601599458382256,0.006375734057211713,-0.017252667028206166,0.002290520197121755,0.0033623714344710657,0.009559635451065543,-0.00252019229190013,0.002530769065559173,-0.006879038013537525,-0.026680474966466892
1,1,0.01056495623986269,0.010157030992051843,-0.0405465818923033,0.0014190961096558496,0.004349610950220461,0.005371938626432794,-0.009078236565404189,0.00709194114768304,-0.0034339983509165317,-0.027585908263273298
1,1,0.004476133850801136,0.009387662755074746,0.0015871970462569501,0.005413321598627521,0.00362004520478553,-0.0017317967929735166,0.015208875854778326,0.011747909526866291,0.001968957645036449,-0.02766958890848186
1,1,-0.003959437072683327,0.004528922321179771,0.01654962579033742,0.0031783031518520955,0.0016917282129779124,-0.009602634420111429,-0.011457084052801304,-0.001466652584563064,0.0066576587869229785,0.025354253987855926
1,1,-0.011817859776288481,-0.0021499211855189383,0.010732021488615632,-0.0009622210412181534,0.001938715351307297,-0.015813835303931437,-0.029881791959806468,-0.0001007750860964756,0.008165244468330772,0.04804035851243788
1,1,-0.016739202856102805,-0.007667146328502587,0.006559337409590859,0.0009921065857440665,-0.002361504313207194,-0.011160236233705788,-0.12389485779315972,-0.010971885361737226,0.005497567542532807,0.03460101809057839
1,1,-0.012837222484707428,-0.009699414133203276,0.007698906642506079,0.00037830931718567406,-0.003318756042412563,-0.002603519539527612,-0.01800061593738054,-0.013704691821532892,-0.00024375309412616342,0.005465462546027326
1,1,0.0017630839666938824,-0.007571136477984475,0.0038404639318065214,-0.004711650508389957,-0.0034083834395614468,0.009026791199090898,0.11808399169639883,0.007233217001227968,-0.0062846376103585485,-0.030996663277505145
1,1,0.008299086181938297,-0.0024264003152884572,-0.004860954229800488,-0.009713391555212737,-0.0027845614508768646,0.014373513730605903,0.10040960766418106,0.009255243236272432,-0.009520537442030493,-0.034564722420364076
1,1,0.013942747793398116,0.003423717780146231,-0.018931868162372183,-0.0056334626730600735,-0.0016269982354047141,0.011072160579129107,0.04900300040888792,0.012940948715821105,-0.008119352559166045,0.0018799741855874599
1,1,0.011801215925664214,0.007586796165176769,-0.01592590323178204,0.0046775308592287975,-8.738842826627762e-05,0.0071436518772496,-0.024018739599153585,0.00418603046983124,-0.0025357536873285825,0.0011889228625505636
1,1,0.005554137238166215,0.00856086599072394,0.007813804873828559,0.012054718772248823,0.001657136405763307,-0.0001700628962940785,-0.05630911352686872,-0.009905889693643552,0.004625263981481881,-0.013978520697458443
1,1,-0.0015457160942287074,0.006195505369336128,0.007919314300353494,0.010076656322318652,0.0032882528664133384,-0.009963281884951472,-0.0740570291406338,-0.014891706893741684,0.009856506281167425,-0.024232852697410198
1,1,-0.009877777105974516,0.001568934370633201,-0.005098203540735162,-0.0006315308217479164,0.004283713610184364,-0.013174360567019936,-0.07636014468210646,-0.021903661694360567,0.010492286755126118,0.04086135147560042
1,1,-0.006941588422413149,-0.003524694981194969,0.008419577610273028,-0.01029143309932144,0.004031368685393065,-0.005684932606150771,0.018226178466835892,0.01341549125518471,0.006065967561973116,0.04245112769480213
1,1,-0.00794502337174406,-0.007216688247002495,0.012765404306295608,-0.007562748330420585,0.002151490148100324,-0.0031333772193896056,0.019557294780434973,0.009365728618985976,-0.0014309725228389646,0.011360499475067044
1,1,-0.010024363064412288,-0.008155887363864705,0.007551745606364453,-0.0005102906516700145,-0.0011094391505375304,0.0022483682444617696,0.07166535795497143,0.005985764564487857,-0.008547920266263087,-0.02237096207590182
1,1,0.002333999436934949,-0.005949912066238379,0.0013138889685091629,0.00020654222859281952,-0.004690222399224022,0.005144334638437268,0.04299125374277163,0.01465204396120649,-0.009630698596051087,-0.016889209953210266
1,1,0.009553925603453445,-0.0013506925066287922,-0.010925019677326264,0.00570384071436057,-0.00698268534966722,0.004603960504773709,0.007090863228517889,0.003850375594648901,-0.008425844470756573,-0.015056421573634633
1,1,0.012109853006494878,0.003930391216878025,-0.022674531706009936,0.0012510722020012209,-0.006562604430775324,0.004445602278491131,-0.007670024258450284,-0.010233111442898637,-0.006129007974918898,-0.010657869868741465
1,1,0.008593828278635874,0.007806054023881326,-0.00974406315693237,0.0020141084886356347,-0.0030516245592102165,0.0037400148357242076,0.0027470836813073777,0.014226956678132693,0.004373382855596936,-0.004775908585906739
1,1,-0.0006523765263286074,0.008635864572206898,0.005495233788536048,0.0005222392032392398,0.0024136661416600774,0.0018059578555108201,-0.018002697121418488,-0.007043158493742639,0.010539115065610413,0.0029885532346518163
1,1,-0.006293868155973926,0.005946692082095747,0.02049114468178709,0.0017265258668501134,0.007492874632630147,-0.0017863329723154637,-0.03489553042643017,-0.03600984114714691,0.010893631357007515,0.00906145245145317
1,1,-0.008361671331722277,0.0006814717242016301,0.010442344356859642,-0.0016417759733314242,0.00969273934782699,-0.0022640043066969036,-0.040452471816874336,-0.014901517295970829,0.005839247207698222,0.013838980063829776
1,1,-0.00717148448730209,-0.0051903924215449156,-0.003699948737537738,-0.004093728613758758,0.007652143083855984,-0.004281562145529666,-0.053077908284686726,-0.000754976759091015,-0.0003258812522377831,0.021154387561930374
1,1,-0.004642237071951658,-0.009524447135654038,-0.005596171298685029,-0.006622905401067347,0.0019583453399873046,-0.004715892397971283,0.0016855229818321068,0.015602340512154662,-0.005811828352974428,0.005219597916959286
1,1,0.0031352038224641684,-0.01087240429864016,-0.009963385906542341,-0.004626831926631414,-0.004993283031984274,-0.0027398763022418995,0.08131570247046045,0.034266851964582776,-0.006717415346259737,-0.009385355693172127
1,1,0.00909826447443233,-0.00644540399876371,-0.0005430032543512979,0.0010979763497432655,-0.01007341848841542,0.00016465048765984116,0.07090245939802342,0.019720642904784633,-0.0054204439710547414,-0.008952144179251343
1,1,0.00894992633552345,0.005217667218271112,0.011420084356506759,0.01313682074356805,-0.010896773502992809,0.002498379013352278,0.036854838971482506,0.002977069993530668,-0.0028198608448874412,-0.014908731185950534
1,1,0.001540632039907897,0.01272033397176507,0.009519146543990685,0.013026197287093411,-0.00696104696158549,0.001508190218414441,-0.005337726586706489,-0.01183984918564571,-0.00019536158039743656,-0.013838068682459395
1,1,-0.0030780832584797087,0.0067358700446324875,-0.004581296934787923,0.003173824418358641,0.0001036175812751323,0.0013670113877902945,-0.07262384643774125,-0.028391027727926243,0.001527418165171771,-0.009729846811791577
1,1,-0.00804002318228883,0.004823509950234419,-0.023251460622292157,-0.013240855478613534,0.007260788267853903,0.0005790789800341387,-0.048436950166103616,-0.018817926774413053,0.0021934759185565705,0.00486684131833136
1,1,-0.00420352308370076,0.0019086047544457402,-0.01122312587836341,-0.016740272820886734,0.01139679835982706,0.005237122101711542,0.012813301591624639,0.005897316561744413,0.0023108363685836867,0.016464997045868787
1,1,-0.0025541659144684486,-0.0031449911367246335,0.018712737622604426,0.0010482716218583779,0.010654775928394066,0.005642053734492672,-0.03928703789694446,0.0023628930369119483,0.0025226433908766706,0.013821505555503188
1,1,0.0015816370963488034,-0.00780953134652238,0.021674732027232132,0.0045835515398336335,0.005236229442505951,-7.685474181333067e-05,0.004415173506973232,0.0024077235970204175,0.0030132387507071103,0.014729118433265121
1,1,0.00418013826292665,-0.00956681607538506,0.006087752585521976,0.0024580777024837868,-0.00014694923720701033,-0.002901741311726166,0.034706971772378845,0.00840927685605276,0.003259154623588481,0.008907619379957384
1,1,0.005876414457064316,-0.007134592424860325,-0.01213460269867709,0.005064048930593015,-0.009683042361566155,-0.006183651510043446,0.027292166813062,0.0005974385940394781,0.002333540435601177,0.0032318702647287307
1,1,0.0050089295780397225,-0.0012027489258325797,-0.015107515120429207,0.0009443639984033958,-0.012853964956852617,-0.009231660360514963,0.024900479563834853,0.010745271813309505,-0.00038834739181827264,-0.01821789808599864
1,1,-0.0011764443655465837,0.005737332477727453,-0.01361538095669538,-0.004326218581954788,-0.010716411691599103,-0.007470368898087806,-0.006650469607640241,0.012706025137505213,-0.004560151471593262,-0.036015844412830705
1,1,-0.0023723257661836857,0.010491788728990996,-0.0018086145679149976,-0.0010894702752116548,-0.004071552849866555,0.002456605070281452,-0.006913768490652951,0.0016722938122515742,-0.008683765788468896,-0.04038861396725888
1,1,-0.009894923285472637,0.010704377741656399,0.016949681125287285,0.008913246002294815,0.004295516146358466,0.0065186257469399605,0.018306484219508985,-0.015022213949986296,-0.005748663168731955,0.026457709773985538
1,1,-0.007553742097485097,0.0060594896153785644,0.018175530853659236,0.0039025671749123828,0.0108002845822459,0.010508600141409977,0.021408896494197662,-0.015665556122498838,-0.0039676683724415044,0.03487433739515767
1,1,0.00570162698862649,-0.0014866764349706987,0.003894154645397999,-0.003021188146282753,0.012664273829010681,0.0089975142409048,-0.02202840377466519,0.0013100949914092567,0.0014864752924321999,0.02859316177314376
1,1,0.003921034334057461,-0.00857844965854225,0.0052382789169427785,-0.007400933069301136,0.009158956109990252,0.002425407080531173,-0.10759546667518013,-0.003080230677066443,0.003661385121790843,0.006946070813752671
1,1,0.004351661639408149,-0.012006068945353268,-0.015567750111774796,-0.006345331094456571,0.0018843939827546496,-0.005576651460037493,-0.07558423114696886,-0.003952753893181431,0.009187820428538062,-0.015412264041863594
1,1,0.004109628437988805,-0.010179186186003922,-0.0189083393941838,-0.0035058309445169526,-0.006010570928822014,-0.005685577044330813,0.07788927683580202,0.0029295977806646743,0.01046025633950084,-0.028775547272565843
1,1,0.00038948929129458565,-0.0038501727538121488,-0.005750596986048282,-0.0029721171149645316,-0.011238203088125969,-0.008467968009051655,0.07751094281225034,0.0038448212250646336,0.006613090455778504,-0.004583821446047264
1,1,-4.0920631782238803e-05,0.004219410182917656,-0.0038098138163708386,0.005949180940121635,-0.011745177372943233,-0.00560968311511248,0.07024979239183107,0.014419571603996624,0.001588728622175041,0.01814617188658908
1,1,-0.002418811080176704,0.010480768232314629,0.0011868864066048763,0.01060343767695019,-0.007488295518566529,-0.001993263039009499,0.02852132517290191,0.01421533876955291,-0.006491323620668042,-0.013858603219720104
1,1,-0.004951479889997265,0.012168642395629987,0.016205203006258474,0.009560843763357429,-0.0003569299000741017,0.0036013028099172156,-0.0287641069023723,0.005015286537502232,-0.011720643970004274,-0.0053921919667931405
1,1,-0.006003463485874103,0.00854310681913164,0.023441296980519794,0.002274246461396031,0.006675346217606347,0.004435111574220764,-0.06592355788695438,-0.01827170757938461,-0.014357362787662507,0.016818741293806297
1,1,-0.003723879019759264,0.0012510643253021564,0.007310466112770247,-0.004985989853095034,0.010806565982002357,0.008040425766903841,-0.06510208157319881,-0.026364027990464046,-0.009172748099319315,-0.003102828712618241
1,1,-0.0008176449919116881,-0.006394800649269199,-0.007980277098309225,-0.008751311780990683,0.01054425229418184,0.003274403780711241,-0.03622285734316871,-0.008817035983480805,-0.00046690588084617913,-0.014103639950016412
1,1,0.010467381582475245,-0.010949874426499605,-0.01664160424625013,-0.009724991597747572,0.006238189425864314,0.002125788545767512,0.009117797325383115,0.020209567898659287,0.008602352985665898,0.025861498429629863
1,1,0.011267528151673836,-0.010496777905479156,-0.005576671198695906,-0.004847569913544964,-0.00020375788181641822,0.0009692463980242131,0.0560084522132401,0.0181561595639329,0.014615300535095696,0.004258429983020237
1,1,0.0043534531885696505,-0.0056136789458910005,-0.013122989054199872,-0.0038176841487331174,-0.006225480752659095,-0.0031514176456642635,0.07279286379262337,0.0019306137890398312,0.015121285924371178,-0.019456708953065022
1,1,-0.0027100392510208448,0.000863770965015288,-0.004240771618718302,0.006403040129334533,-0.009674877727191736,-0.00568893922627488,0.029381030244207944,-0.007396099203151124,0.009630838705900627,0.021697147816237102
1,1,-0.009826142512725594,0.005207316163944804,0.008643218535920089,0.013303278665665632,-0.009523435269405547,-0.008236116478694044,-0.039010514119622426,-0.01504571326398215,-4.0039439752518824e-05,-0.003531800547844811
1,1,-0.009330135533564378,0.00468292668756596,0.007690061547244692,0.010426525539779926,-0.006048148230532388,-0.006146365139755302,-0.07979288578734996,-0.0029422710307815928,-0.010338063173348774,-0.042093612481153474
1,1,-0.0034267730216171795,0.013732211424097555,0.015227403053865796,0.0038822843232633785,-0.0005706483169329031,-0.0029780645068886416,0.015728662601136808,0.014107936150556867,-0.017352061135495075,0.007162195991420137
1,1,0.0009197731709272364,0.010211361317600297,0.007127962175559876,-0.0006548332945997151,0.0050279483185234255,0.004349964219160517,0.040336718313004866,0.0022544461545255406,-0.013595105352052,0.021874347809455134
1,1,0.005901529460152822,0.00018035601014697962,-0.015045049237969628,-0.010285977494152224,0.008858090260634185,0.012260606038040451,0.01781836255462301,0.0037618618443086204,-0.008871758205825347,0.011236226599461708
1,1,0.0034664987037072614,-0.010561635942851984,-0.0106665373065832,-0.01558008343310551,0.009571125725711805,0.01276618052952493,-0.007081588293522313,-0.0030253044778345956,-0.0010170506101883248,-0.009143838362681057
1,1,0.0027678866154548115,-0.013319354604356867,0.003322207153647159,-0.009629840934353023,0.0068282887630734595,0.004134696046501984,-0.08642468525484964,-0.0022794654982307627,0.013025238915990726,-0.0058837302391041985
1,1,0.005823202004877688,-0.011170738676658588,0.008919193361594769,-0.002116438331243114,0.0015226090446916875,-0.002576929394385301,-0.0242564837959686,0.0006842742877881422,0.01966302828179537,-0.011673974629331564
1,1,0.005350145056184434,-0.0017976245414255561,0.005379990476459074,0.012608994904282862,-0.004431718932303856,-0.005183368764061658,0.0879305355649764,-0.004389780085059766,0.01676701483884217,0.028766699044115954
1,1,-0.00545860314893339,0.006351737511355009,0.003998489790452827,0.013115233428370248,-0.00877417462500365,-0.011189483045768563,0.03524964522588334,-0.01535102364378108,0.0067150463344381435,0.009953513335649956
1,1,-0.01139164053104287,0.010122309571751649,-0.011031170029007647,0.009467780785115482,-0.009806020121244435,-0.012506874606348743,0.007539716038905214,-0.008004713513063812,-0.008419803691272185,-0.01762265839457288
1,1,-0.006551720291610685,0.008078325398025108,-0.029655975883343996,-0.0012137672384057144,-0.007118266406028474,-0.007244244826260614,-0.006510751710823446,0.020392629395707094,-0.023537896469853783,-0.0356459395616526
1,1,0.0033687748871122076,0.001242160140543977,-0.0022085037529005667,-0.004320984022051282,-0.0017766992642211017,0.002742182665144642,-0.034562624747177036,0.027530370040754707,-0.025236651374422558,0.0029809537298811
1,1,0.002278365714474113,0.0025807630430056106,0.016043871497435046,-0.004025101729726422,0.004129286312092399,0.009947732580471566,-0.056347831553579836,0.0061225448819154414,0.006988150379917035,0.028717491671849546
1,1,0.0023157359666842107,-0.0012576516649411044,0.019491961269499068,-0.006544162466091302,0.008350222250081517,0.014373382623386298,0.017962491599272084,-0.013459676916615088,0.012191980724890918,0.025206453631745722
1,1,0.0018286022602826888,-0.005092507439822366,0.016335081553745377,-0.0010949864647140466,0.009355083045849715,0.012098605622987169,0.06659180259897544,-0.020815656780559563,0.012652655049827821,-0.004045762637365265
1,1,0.0010000243364932072,-0.011392553187332713,0.005172578967143127,-0.0023935676147439733,0.00687039341765,0.0031376441174809978,-0.014951129600744763,-0.01794143694233495,0.006241859462019834,-0.03926715718633982
1,1,0.0025578793000135347,-0.004964261354233441,-0.00914921347184056,-0.0019821487215269194,0.001916969427203283,-0.005942468047933221,-0.0735434867626753,-0.01158222238834245,-0.0028983111411808537,0.00021870603343925277
