-0.0002343458770039,0.0038879434594476,0.0065603867094581,0.0063461825265165,0.0031413805483676,-0.0016293640377657,-0.0056688795951606,-0.0070002983473056,-0.0050190721550578,-0.0007929826878126,0.0035457510917993,0.0059378242387801,0.0054111782440546,0.0024514893032271,-0.0013770526132557,-0.0042599875530551,-0.0049539701095988,-0.0032629478265632,-5.547306278884379e-05,0.003122529610116,0.0047035297580598,0.0038203875486075,0.0008048969842881,-0.0028456728094059,-0.0051524800316482,-0.0047210325080698,-0.00159277638052,0.0026766192008017,0.0058213847250898,0.0060999638551734,0.0032402827420066,-0.0014233490953818,-0.0056484434342866,-0.0073994128248855,-0.0058034369340516,-0.0015184791741678,0.0036012813073389,0.0073449961405398,0.0080996928277293,0.0055123594503408,0.0006036826625511,-0.004675581856329,-0.0082326817626415,-0.0086476323592395,-0.0057178870657901,-0.0005401237870677,0.0049090277140965,0.0085478743619586,0.0090157149535867,0.006198226420278,0.0012212400491092,-0.0040669516017656,-0.0078542702584003,-0.0089963157479745,-0.0072749951119081,-0.0032919995490802,0.0018083973592512,0.0066072014360022,0.0096492809747493,0.009753721943238,0.0064475894666553,0.0003881116379232,-0.0065271457118118,-0.0116371348150473,-0.012572567796321,-0.0084629705213899,-0.0006150858596528,0.0078451835152649,0.0133135632492019,0.0133850001144629,0.0079984444783729,-0.0005369694065053,-0.008620181190517,-0.0129735258053795,-0.0120166062998118,-0.0064148091719357,0.0013474273538026,0.0080954142001148,0.0112793478689328,0.0099378400981091,0.0049456115892404,-0.0015016797703267,-0.006875094792198,-0.0093017378350972,-0.0081586693654726,-0.004127023657413,0.0011863022479369,0.0058395203284742,0.0081722816310136,0.0073335567595142,0.0036172913670754,-0.0015407695191303,-0.0060267094345858,-0.0079070752221261,-0.0063402919087085,-0.002051776865706,0.0029563680728306,0.0063728820464824,0.006723805453839,0.0040753616337399,-8.164476709192682e-05,-0.0036764128299478,-0.0051417102354387,-0.004140610031011,-0.0015775891328677,0.0010422485114151,0.0024895228768146,0.0024146580947796,0.0013702315675961,0.0003045927587277,-0.0001070337164715,0.0001428638335928,0.0004954816265367,0.0003024488435084,-0.0006680647561021,-0.0020178630416454,-0.0029105312967986,-0.0025502888979514,-0.0006930873763896,0.0020807715121387,0.0045109090582477,0.0052168658793226,0.0034532187735038,-0.0003284522143343,-0.0044918716680517,-0.0069253999153227,-0.0061537172355843,-0.0022468973078451,0.0030396568472416,0.0070647412114943,0.0076771607181405,0.0044309334237566,-0.0010779881428646,-0.0060120596075771,-0.0078180049336446,-0.0056090796303845,-0.0006127724954716,0.0045382002186221,0.0072222370107286,0.006154961461949,0.0019624650412926,-0.0032050671446585,-0.0067525950496508,-0.0068790380135375,-0.0034339983509165,0.0019689576450364,0.0066576587869229,0.0081652444683307,0.0054975675425328,-0.0002437530941261,-0.0062846376103585,-0.0095205374420304,-0.008119352559166,-0.0025357536873285,0.0046252639814818,0.0098565062811674,0.0104922867551261,0.0060659675619731,-0.0014309725228389,-0.008547920266263,-0.009630698596051,-0.0084258444707565,-0.0061290079749188,0.0043733828555969,0.0105391150656104,0.0108936313570075,0.0058392472076982,-0.0003258812522377,-0.0058118283529744,-0.0067174153462597,-0.0054204439710547,-0.0028198608448874,-0.0001953615803974,0.0015274181651717,0.0021934759185565,0.0023108363685836,0.0025226433908766,0.0030132387507071,0.0032591546235884,0.0023335404356011,-0.0003883473918182,-0.0045601514715932,-0.0086837657884688,-0.0057486631687319,-0.0039676683724415,0.0014864752924321,0.0036613851217908,0.009187820428538,0.0104602563395008,0.0066130904557785,0.001588728622175,-0.006491323620668,-0.0117206439700042,-0.0143573627876625,-0.0091727480993193,-0.0004669058808461,0.0086023529856658,0.0146153005350956,0.0151212859243711,0.0096308387059006,-4.0039439752518824e-05,-0.0103380631733487,-0.017352061135495,-0.013595105352052,-0.0088717582058253,-0.0010170506101883,0.0130252389159907,0.0196630282817953,0.0167670148388421,0.0067150463344381,-0.0084198036912721,-0.0235378964698537,-0.0252366513744225,0.006988150379917,0.0121919807248909,0.0126526550498278,0.0062418594620198,-0.0028983111411808,-0.004880941947909,-0.0029689323913673,-0.0011800280191969,-0.0033721582685915,-0.001880316212425,0.0024125825400972,0.0056393948217797,0.0039050983877446,0.0012452192543803,0.0007065803025228,-0.0031780429350283,-0.0057441485386009,-0.0074055790785763,-0.0056700174285274,0.0004756625207436,0.0083589112413711,0.0125040549174894,0.0109986541728246,0.0039316819590604,-0.0064593110866564,-0.014061055372248,-0.0129842268195162,-0.0108161957824925,-0.0003529086838902,0.0111403673886186,0.0125586123442651,0.0104663847871033,0.0078661655241556,0.0004036147480254,-0.0040872230541302,-0.0096482643671542,-0.0138040744255259,-0.0112163078215315,-0.006184949024837,0.003357424788189,0.0174876853736267,0.0184123404167317,0.0092415465389565,-0.0007307484768822,-0.006795464503655,-0.0148125453480443,-0.0119463344390321,-0.0064231972998737,9.822724816269548e-05,0.0057793176203904,0.0091882532991645,0.0095554151343178,0.0066933762883971,0.0008571012227598,-0.007169743102958,-0.0060064412860224,-0.003124578212433,-0.0011185099483793,-0.0037289697935987,-0.0042817762770697,0.000166760816153,0.0040797441278855,0.0074015386278858,0.0087494535409979,0.0056544039311285,-0.0003655438914523,-0.0067871852709408,-0.0084396377501473,-0.0085566104606211,-0.0070796582868907,-0.0006769598326426,0.0055958598199224,0.0094738394244763,0.009855300560989,0.0070061728781202,0.0021539010237481,-0.0031463160513008,-0.0074900902457904,-0.0098378450929113,-0.0096107052759157,-0.0068321658247141,-0.0022785797640563,0.0050758150173453,0.0157217246617826,0.0159536288747653,0.0122779244074982,0.0028891721975792,-0.0101227008011449,-0.018573149225599,-0.0192204543042773,-0.0131513036877856,-0.0017854335951842,0.0108241065748128,0.0196231953979741,0.0208719687288871,0.0139426415298516,0.0016347156781829,-0.011152343650897,-0.019649303568091,-0.0211821096095861,-0.0159671353079755,-0.0016711702047599,0.0155657756637373,0.0201731813798143,0.017016955641148,0.0106392397800894,9.485236778341278e-05,-0.0088215004386031,-0.0150888242094653,-0.0162026233754567,-0.0116081324591737,-0.0028870016141117,0.0068277375604605,0.0139817318772865,0.015894193405541,0.0117674673714161,0.003015058239039,-0.0072544880722785,-0.0153829617758309,-0.0110800743496049,-0.0057225403999309,-0.0029450206129795,0.0014022936589761,0.0086922110726638,0.0115981976751599,0.0095697191168064,0.0038906942668805,-0.002963395670237,-0.008297682113371,-0.0101767276344046,-0.0080834801777094,-0.0030408337622329,0.0028356154289332,0.0071826946979574,0.0083126260762984,0.005863946703924,0.0009433536735081,0.0005724463916315,-0.0052662637395973,-0.0081306387857068,-0.0055739256677993,-0.0014070682130072,0.002562497617395,0.0048132177980658,0.0047193777092125,0.0027314185660214,5.777865489459415e-05,-0.0019802393940052,-0.0025895424711676,-0.0018218943071332,-0.0004295883801421,0.0006284920496423,0.0007464995322588,-5.166606685816117e-06,-0.0009605340284648,-0.0012896352711106,-0.0005335309519758,0.0010659234305313,0.0026419099168368,0.0031641809312839,0.002048367632209,-0.000427174588053,-0.0031594256398005,-0.0047408490847372,-0.0042110453212224,-0.0016266085549519,0.0018965581679123,0.004724661521606,0.0055374120569285,0.0039783664108134,0.0007770854331217,-0.002671559843291,-0.0049839776242587,-0.005350921804924,-0.0037593521858169,-0.000869366770851,0.0023034208734861,0.0047275695337674,0.005620065310004,0.0046253899150729,0.0019281441203645,-0.0017205038746768,-0.0051278886724621,-0.0069845346110393,-0.0063424744115594,-0.0030843677821834,0.0018423189958409,0.0066109237504905,0.009154510069041,0.0080688946062226,0.0033899083245515,-0.0031915708818181,-0.0089109820879248,-0.0111370914518069,-0.0086451345155777,-0.0022920605935129,0.005286843219661,0.0108323043844319,0.011910981222582,0.0079851078670168,0.0006388842659669,-0.0070997599052931,-0.0120187926162791,-0.0120313414409222,-0.007023283115038,0.0010700434851925,0.0089807059989747,0.0133681263160521,0.012182780349664,0.0056258387708246,-0.0037313887887942,-0.0118596113452625,-0.0149829984694805,-0.0113906332929197,-0.0024349781344474,0.0079087913603605,0.014832773131356,0.015003792454678,0.0082344104080365,-0.0023519131312878,-0.011789823333545,-0.0156759615270774,-0.0123085996491016,-0.0034704632501152,0.00654068044462,0.0130981598517265,0.013478346302846,0.0079992886627697,-0.0004147872647576,-0.007859530032451,-0.0113226832259855,-0.009874874813148,-0.0047426414823396,0.0015623218048853,0.0064891991434591,0.008454626642423,0.0072364094945894,0.0037430996590424,-0.0005668326575577,-0.0042709310616265,-0.0063592618460674,-0.0063788359605022,-0.0044318936039279,-0.0011060132822985,0.0026435476201931,0.0056776909079181,0.0069440923819796,0.0058191947611631,0.0024301334133874,-0.0022103454609392,-0.0064143760460691,-0.0083994647611184,-0.0070623063661285,-0.0026106568623344,0.0033059192636082,0.0081625468002689,0.009681294151901,0.006995729118862,0.0011964250977123,-0.0051329335282204,-0.0091871283347622,-0.0093023364836971,-0.005650742364954,3.408721081169238e-05,0.00540646918205,0.0085309338510954,0.0084974125205576,0.0055112154412638,0.0006390035048811,-0.0045523686603027,-0.0083656834179994,-0.0093884765292172,-0.0069716724733181,-0.0016387939917543,0.0048396971834466,0.0099281931479938,0.0113188142400008,0.0080380784660109,0.0010900369616913,-0.0067765327376841,-0.0121601129276672,-0.0125087470013271,-0.0073668569381733,0.0012353149280257,0.0095332242669603,0.0137023281729802,0.0117223000317753,0.0044637799406551,-0.0046687812322539,-0.0114257836796532,-0.0128255469571859,-0.0085352998336393,-0.0008387213922547,0.006653936705089,0.0107665226949224,0.0100980733856137,0.005404729430553,-0.0009949020277547,-0.0063836788692214,-0.0087985631540947,-0.0076936770130856,-0.0039242149990387,0.0008182311488691,,,,
0.0109291685042298,0.0099734448520604,0.0044059009993201,-0.0030675379754558,-0.0089202848115525,-0.0105346014080143,-0.0074275540591181,-0.0013648994554299,0.004667284284825,0.0080417751443474,0.0077283590904681,0.004539750068216,0.0003769613070333,-0.0029368203403898,-0.0044992168751604,-0.004453775955176,-0.0035120735584423,-0.0023102629213896,-0.0010312311915323,0.0005216810141319,0.0025127870725844,0.0046386040864722,0.0060076104335111,0.0055067993366474,0.0025247346832006,-0.0023884331944111,-0.0074178079823542,-0.0101693052441346,-0.0088848517822919,-0.0035256825509971,0.0039496197783598,0.0103618793945917,0.0127874777673674,0.0099701983674732,0.002942691526072,-0.0054275756935912,-0.0117019178464459,-0.0133319479584854,-0.0096918052465317,-0.0022903257843211,0.0058839052997312,0.0115986115159204,0.0126852244497217,0.0088807925942028,0.0018638804659124,-0.0055098670996031,-0.0104189596611536,-0.0111920239482045,-0.0078576053216789,-0.0019553091997032,0.0042101169655087,0.0084819190136425,0.0095634921841648,0.0073343856417677,0.0027576531719372,-0.0025198620541481,-0.0067223569676747,-0.0084942799055274,-0.0073070980871545,-0.0036253946525389,0.0012297711391548,0.0055236249644449,0.0077408792081143,0.0071589812213917,0.0040929456245387,-0.0002886874256709,-0.0044400702221188,-0.0069629126668668,-0.0070142175052807,-0.0045532077444633,-0.0004074478764759,0.0039130454369507,0.0067113894302178,0.0068089371332491,0.0041474845678309,-8.826156386610835e-05,-0.0039936843695082,-0.0058866852102588,-0.0051437078346669,-0.0024364176966542,0.0007504992908483,0.0029816392624211,0.0035650946573193,0.0027103806339661,0.0011814753919778,-0.0002260420123612,-0.0010490635206707,-0.0012366893360755,-0.0010234255990187,-0.0007322761121316,-0.0005944261344705,-0.0006275137521749,-0.0006198039888326,-0.0002656180010322,0.0005786640230601,0.0016715078282926,0.0024000271201708,0.0021139360552867,0.0006130044635905,-0.0015627170577202,-0.0033133250001689,-0.003580712801789,-0.0020074205608946,0.0007663321598066,0.0033650287144314,0.004376081566965,0.0031220539142854,9.214116472655844e-05,-0.0032236283266698,-0.0050511997595985,-0.0042589289581438,-0.0010212586062666,0.0031499791690615,0.0060822171341738,0.0060424271246741,0.0027170177475113,-0.0024772662567817,-0.0069935303600132,-0.0084162802688009,-0.0057369481254681,4.734622957673088e-05,0.0063450536271874,0.0101817227362959,0.0096003742837653,0.0045872729197259,-0.0028716499771653,-0.0096001811787828,-0.0125641656966083,-0.0101978873212358,-0.0031860065759874,0.005668655721906,0.0125326291521902,0.0142121297806511,0.0096927793530728,0.0007747001041713,-0.0086214975256209,-0.0142459971925874,-0.0135608703307972,-0.0069932498512337,0.0022557571826371,0.009754558974328,0.0119545735153851,0.007842534796156,0.006736263558842,-2.516048209735726e-07,-0.0061018441992008,-0.0096285651730016,-0.010959625144111,-0.0070669540452996,-0.0001649513267563,0.0054386727786938,0.0088086661550952,0.009718954619154,0.0081951467958641,0.0040352260872874,-0.0033946587483142,-0.0148203008207822,-0.0226851877769476,0.0041303330322262,0.0107842655754851,0.0054355357392003,0.0043599376454602,0.0001194516759028,0.0007910191762319,0.0015563092698784,0.0024850477508183,-0.0009618679166328,-0.00786450404935,-0.0064428084013025,-0.0032464894416917,0.0006352433133195,0.0040207611129342,0.0049986278934078,0.0083714280517844,0.0041853259482541,-0.0020250400676644,-0.0037217485755612,-0.0064140336999874,-0.0065205442026357,-0.0048668777792807,-0.001463634447417,0.004887139799704,0.011418683267846,0.0073112004293035,0.0035450325702271,-0.0020205138162826,-0.0088006001660912,-0.0101560891490012,-0.0036589707942469,0.0019805194039773,0.001642648029438,0.00339225023308,0.0067839831652059,0.0063431740317859,-2.7912307254146553e-05,-0.0050937976114524,-0.0054755041421517,-0.0023502290064501,-0.0010005611660171,0.002338344866594,0.0028557779964587,-0.0024612699387664,-0.0044815131224391,0.0047628114833866,0.004197610768316,0.0003018103347314,-0.0001031624367302,0.0013910820360209,0.0010061968234255,-0.0017258250388522,-0.006077860082437,-0.0062777998450262,-0.0019325884321651,0.00130111906895,0.0055727681527367,0.0103197075329106,0.0147584165354815,0.0001966070676077,-0.0210005834837044,-0.0216037760372155,-0.0055904370801571,0.0189784248006741,0.0173930677681913,0.011220157159686,0.0002879778390113,-0.0168975033347834,-0.0285546122384718,-0.0035155280650478,0.023105454398523,0.0148858348920477,0.0023912770787648,0.0034063831087791,4.704046540327212e-05,-0.0125389786649007,-0.0242357708270194,-0.0018204375377547,0.0088954847631739,0.0138455270485022,0.0088084159509336,0.0029378070422898,0.0026970178274959,-0.0027662394883047,-0.0096517055741364,-0.0117064071303282,-0.0046854135356141,0.0058642577090102,0.0026526553756989,-0.0022905166490821,0.0016531664638844,0.0176877245500298,0.0109178108572867,-0.0002339158440276,-0.0118655791927381,-0.0179011257739524,-0.0172594705498154,-0.0073528337306165,0.012351371038848,0.0246997062664104,0.023592805932493,0.0069731392129321,-0.0145202225446924,-0.0289175746827928,-0.0222944200272554,0.0101851611147452,0.0141431010610531,0.0101564176420673,0.0058415209451568,-0.0024856241698282,-0.0032191529221862,-0.0022869972375117,-0.0012461166475022,-0.0014816365692366,-0.0026875877253326,0.0013409017739004,0.0009976804247443,-0.0011784122679913,-0.004051838833949,0.0031095783003732,0.0080031664369692,0.0062697171186118,-0.0007718568876519,-0.0082365403658701,-0.0098942359645933,-0.001426506957705,0.0026681378102102,0.0026892678464949,0.0039876243257284,0.0036223937357315,0.0032439166687989,0.0019188550878739,-0.0007434831305116,-0.0071780490221364,-0.0064510969218464,-0.004899387055724,-0.0020967128369339,0.0038241345226724,0.0088675231238877,0.0093744672764429,0.0048294930363783,-0.0017437213415587,-0.0060088722966514,-0.008487934502442,-0.0078945017507079,-0.0042446369287663,0.0011249539472275,0.0060892078758531,0.0085843078898643,0.0074607409770311,0.0030234077143142,0.0018898185669592,-0.0057287196240163,-0.0080996926158385,-0.0093111109847824,-0.0050171201824875,0.0005365100800888,0.0052950913382707,0.0077263576828031,0.0073332237249438,0.0046468255175975,0.0007969894154845,-0.0030239144272092,-0.0059199261402257,-0.0073909162184389,-0.007257716154522,-0.000674436029745,0.0022255453403695,0.0056163963387528,0.0060434499445403,0.0047595733416978,0.0037901199064349,0.0008658601163998,-0.0029824014887311,-0.0062721767651579,-0.0076134571892002,-0.006249745328273,-0.0023961494227164,0.0027513453734899,0.0073520994320432,0.0095341224148423,0.0081349210581878,0.0033133292972382,-0.0032897133983396,-0.0090542761847328,-0.0114465740951821,-0.0091930956338279,-0.0029747804984938,0.0047487072605731,0.0107480736458983,0.0124215164052098,0.0089538788271896,0.0017196051770501,-0.0062672328722803,-0.0116434522396251,-0.0121664736028906,-0.0076869088886514,-0.0001739122031028,0.0071898490048082,0.0113936977647599,0.0108423704938924,0.0059522157779071,-0.0011048031674746,-0.0073640169192689,-0.0103174659477991,-0.0089297454972427,-0.0040080630553589,0.0022145658752635,0.0070869492165989,0.0086800546908537,0.0065550819673548,0.0018548363878609,-0.0032637333658555,-0.0065761279894998,-0.0067286824240361,-0.0038087442813224,0.0006922696389129,0.0045521661148194,0.0058788514512853,0.0040722119098737,0.0001708518274953,-0.0036623736015677,-0.0052965222335903,-0.0038187748538562,-7.715561736348849e-05,0.0037610436251313,0.0054246124209637,0.0038593225308214,-0.0001088902481581,-0.0041900165465183,-0.0059365399881879,-0.0042068802019141,9.384986802589884e-05,0.0044877153125729,0.0063742963821857,0.0045930729038946,0.0001327305691014,-0.0044573634851926,-0.0065804381110096,-0.0050851089339016,-0.000848369440596,0.0038220984487947,0.0065115977875944,0.0059399819550646,0.0024879430045122,-0.0021368371813975,-0.0057919174004306,-0.0068683097713949,-0.0049316649529432,-0.0008358521991469,0.0036821590374596,0.0067436220319333,0.0071041115910483,0.0046392705842565,0.0003304128289202,-0.0042232273257268,-0.0074976746803981,-0.0085825167555768,-0.0073233658750894,0.0032489158933299,0.0074476560260831,0.0064441852570762,0.0060359509453867,0.0052681900291348,0.0016141216487487,-0.0037217224061941,-0.0085750085533529,-0.010579873946703,-0.0082505722709639,-0.0019228829573424,0.0060381337711063,0.0120909653283753,0.0131711962972522,0.0083324441533814,-0.0005552114440027,-0.0095194619869911,-0.0143161280856025,-0.0124890346344088,-0.0046851982157457,0.0053609532852805,0.0121734817260568,0.0107281571431112,-0.0011930809466338,0.0006540571604461,0.0080352085930606,-0.0003812878210029,-0.0114783681882691,-0.0120965998767544,-0.0081873608011974,0.0008847904202488,0.0034633937597916,0.0123897312643528,0.0123386311237839,0.0059755706652507,-0.0024059015067854,-0.0087593056584086,-0.0106775486453413,-0.0079651582720391,-0.0023303855169684,0.0035780230978779,0.0073560540969271,0.0077714544357594,0.0050968492086323,0.0007895506183494,-0.0032600203729587,-0.0055361062623659,-0.005424479494863,-0.0033024682840842,-0.0002420311356171,0.0024919343895138,0.0039350746797077,0.0037398842975359,0.0022240515588071,0.0001524905239713,-0.0016399764710566,-0.0025939118759699,-0.0025655483698259,-0.0017393624833098,-0.0004543293518051,0.0009009345687043,0.0019115086546235,0.0021924573993576,0.001556451821171,0.0002099969425628,-0.0012182465019433,-0.0019457955434745,-0.001506447345971,-0.0001203592388132,0.0013412854650227,0.0018576612228427,0.0009448682851943,-0.0009370270580213,-0.0025790518236308,-0.002747794413564,-0.0010007633135932,0.0019219663610711,0.0043997772316805,0.0048039671193861,0.0024854733606183,-0.0016916403986695,-0.0056499857075369,-0.0071591632196214,-0.005104051095945,-0.0002206584953917,0.0051738567778623,0.0083530907123462,0.0076212993745822,0.0032275819300749,-0.0027431587782662,-0.0074336876550142,-0.0086544255616229,-0.0059420074478219,-0.0007070062837006,0.0045567172224673,0.0075314390782246,0.0071231326656186,0.0038055234141056,-0.0007898893844445,,,,
0.0074117604960205,0.0074938070585942,0.0043709194998317,-0.0005029205127757,-0.0050955124024561,-0.0076997492224847,-0.007653333721956,-0.0055228187383073,-0.0001439699207885,0.0094676963792701,0.0080825140461585,0.0028884299483092,-0.0006362904142225,-0.0015640417429062,-0.0018553368842813,-0.0016448247554025,-0.0016010622765959,-0.0023124544318283,-0.0011640849835904,0.0026401293984118,0.0003306958307747,-0.0027652580198698,3.965044593564732e-06,0.0025221935079684,0.0036577863308183,0.0028951841841765,0.0005513635753316,-0.0023940243010174,0.0001356680944205,-0.0032393797949383,-0.0051524913379633,-0.0033148746374153,-0.000668805730567,0.0022975102569089,0.0048973931478066,0.0062025750796105,0.0053541063014862,0.002138832014099,-0.0025651318042872,-0.0069026357425155,-0.0088305014495942,-0.0072267797255157,-0.0026606498102325,0.0027396005525027,0.0112462388892767,0.0137759867299821,0.0076177750919046,-0.0030644573162429,-0.0084154159087289,-0.0109059145293685,-0.0093488767107698,-0.0043233312674366,0.002164452735894,0.0076104059196097,0.010023305347466,0.0086161744967003,0.0040074615783916,-0.0020505979765369,-0.0072938989206408,-0.0097375782339746,-0.0084088610224041,-0.003768185806547,0.002389225478328,0.0075929934009998,0.0097038966880494,0.0078416338739299,0.0027956750907361,-0.0032961406391476,-0.0078719082256924,-0.0090594142926128,-0.0064777367574506,-0.0013660192731547,0.004014471511712,0.0074188983613905,0.0076005266814455,0.0047740215805818,0.0003743942979114,-0.0037096186526175,-0.0059985625864354,-0.0059494239493476,-0.0039506300940078,-0.0009158555135084,0.002186768465393,0.0045869515005732,0.0057166222849653,0.0051663880028233,0.0027984148006077,-0.0009975254355996,-0.0051511213315022,-0.0081281862822606,-0.0085378661145835,-0.0009672705700529,0.0039266169777342,0.0065535690917486,0.0068317484048937,0.0059929537264455,0.001985200445379,-0.0031584485728025,-0.0069071048978623,-0.007532410902472,-0.0049264994290984,-0.0005274500812919,0.0035544969262715,0.0056606553249032,0.0053062571349385,0.0031644140318057,0.0004595881932714,-0.001760802025978,-0.003027859405872,-0.0033774873797051,-0.003006594218449,-0.002017688708929,-0.0004601911514438,0.00143334921145,0.0031084026728053,0.0038501422580918,0.0031794726304703,0.0012077247744917,-0.0013156924736641,-0.0033250508729389,-0.0039535188664213,-0.002954440172373,-0.0008109455942606,0.0015042938854218,0.0029858251564208,0.0030504886271253,0.0017905195818617,-8.248869888764514e-05,-0.0015845505894903,-0.0019556287109097,-0.0010744235124495,0.00043775037997,0.0015080909843921,0.0011406013593836,-0.0011404440041421,-0.0051725318207716,-0.0006011090657457,-0.0016687258961235,0.0037983684946013,0.0080331585567933,0.0056207693825359,0.0014647378476728,-0.0016756579666244,-0.0147772960043338,-0.0196080586954145,0.0048666701057033,0.01357145557136,0.0141646479196406,0.0060878020077519,0.0004800311470115,-0.0038327920979919,-0.0146740715589062,-0.0104350048459216,0.0011920196369598,0.0026828110086532,0.0056322426663021,0.0097722751805812,0.0032206430074874,0.0015115058204015,-0.0036860534693336,-0.0062939910014378,-0.0039015144454733,-0.0020308932267674,-0.0027564546508286,-0.0009039763701113,0.0046773168451695,0.0063508185610032,0.0049513384103759,0.0018169734507118,0.0029788981136259,0.0012934179807696,-0.0072011965584832,-0.017536139959938,-0.0269257327651131,0.0118315204434351,0.0317226906124422,0.0211929778022061,0.0039076304653631,-0.0130044587441305,-0.0150809972382336,-0.0116850274854179,-0.0071227260701361,-0.0018867392332267,0.0038390059272077,0.0047980898261437,0.0190950418101439,0.0144048312794202,0.0009843286509917,-0.0118771571353316,-0.0120052650011773,-0.0113886044717619,-0.0077379823762141,-0.0025807830233821,0.0048253552309808,0.0122741648734868,0.0171846645852831,0.0115883721020755,0.0019473170551317,-0.0044603566789324,-0.0150455393955347,-0.0286737472035273,-0.0328178434585271,0.0088775538916775,0.0400668044611111,0.0390825674556581,0.0193673081125924,-0.0047627297831185,-0.031387541929087,-0.0401467559318254,-0.0380023242681121,1.7994151439216844e-06,0.047907018378031,0.0475628013636693,0.0195352196982538,-0.0073449119347918,-0.0288902786762966,-0.0348375357249604,-0.0435430776059345,0.0012586448899686,0.0531429101425852,0.0458818684568308,0.0197325419766048,-0.0176183861998024,-0.039606297260711,-0.0330304956746964,-0.0360289757317586,0.019621029596981,0.0481533576945952,0.041780025212541,0.0325141449821603,-0.0230544273745267,-0.0713086182608547,-0.0216286019680177,-0.0269570699462667,0.023323775050385,0.0509921861400413,0.0498632947332947,0.0055085601569577,-0.0290798735540755,-0.0568486718526773,-0.0300809769376635,0.0171511921015308,0.0433157139021969,0.0214290027548557,-0.0072112366753205,-0.0128021754430396,-0.0186387097280071,-0.0085225906916932,0.0145961443579958,0.0214262432051255,0.0040688018701229,-0.0301147592423641,-0.0019420209548539,0.0017492945252032,0.0172035382521922,0.0018628319154514,-0.0091739982354008,-0.00980918785401,-5.216314224462837e-05,0.0200900605597123,0.0082447592579322,-0.0172377194902285,-0.0123221922047864,-0.0032412605656626,0.0160114223586093,0.0061206407703356,-0.0079623956422516,0.001191598263908,0.0057288671606886,-0.0021438075874095,-0.0115629990940795,-0.0015619753253382,0.0018501180916018,0.0036699503738662,0.0107092678220129,-0.0013316465648751,0.0068430576836779,-0.0065333965803978,-0.0135662736892715,-0.0073709123499478,0.0056940611957312,0.0104702511053057,0.0009666639412482,-0.0115350686971737,0.0069676637422553,0.0161535317071711,0.0017041182778939,-0.0119505190608587,-0.0100459279452665,0.0027127855342665,0.0013833004833057,-0.0047942349586557,-0.0170222423882205,0.0074055193654781,0.0226469482309133,0.0180915843048359,0.0061528302502998,-0.0162914350269645,-0.0168396261730778,-0.0168228928763764,-0.0029458023987196,0.0065275459655025,0.0084617257699257,0.0103086832288841,0.0050137063388191,-0.0024766970933217,0.0095357155142879,0.0049549790300394,-0.0013740077018081,-0.0128452878751198,-0.0291938027700313,-0.0228524412990533,0.0002329685631178,0.0401031765661077,0.0408660356321931,0.0164837641495247,-0.0064106206321617,-0.0291175934188771,-0.0420093546380088,-0.0294179536973648,0.0080101053739014,0.0371358170065395,0.0337266377781851,0.017227615345658,-0.0081403254971258,-0.0230794230492363,-0.0271876367030754,-0.0086021164374061,0.0088325379388265,0.0162194044762759,0.0105409235239124,0.001867048315251,-0.0041030103239298,-0.0075567251843039,-0.009173197997038,0.0053095441359652,0.0099629467291684,0.0023025054351494,-0.009000621845967,-0.0017148657823894,-0.0017415278496429,0.0004962182134579,0.0028896805317536,0.0036111850258089,0.0016067582231903,0.0008245581077018,-0.00341735118515,-0.0060968427936015,0.0023271406694919,0.0036146578834438,0.0008847851459347,-0.0019246845264235,-0.0034245262993144,-0.0035259900915057,0.0019714344805844,0.0062648075930262,0.0062144609731535,0.0026882252715158,-0.0023714301146791,-0.006694293413712,-0.0085257564575638,-0.0072527695975242,0.0013352818034375,0.0082502334302701,0.0113320927591775,0.0041135183860696,0.0012086861034911,-0.0032619299475085,-0.0067974019826095,-0.0073508893572782,-0.0045251353872697,0.0002201496292712,0.0044469097857263,0.0061382072981592,0.0047632693147941,0.0014215695344424,-0.0019226806759214,-0.0035910811280839,-0.003053442490468,-0.0010634831767299,0.000931290085901,0.0017095711344801,0.0009774678574105,-0.000542873123217,-0.0016557199635168,-0.001496950852319,-7.776335381924564e-05,0.0017632532960723,0.0029159713841558,0.0026578400974995,0.001015022799689,-0.0013087114066967,-0.0033008335893185,-0.0040799007937762,-0.0032334962371049,-0.0009691289244756,0.0019411570362301,0.0043997973994949,0.0053558360888283,0.0042237242736942,0.0012044851950887,-0.0026676858464343,-0.0058542791704379,-0.0069296646384744,-0.0052219176202815,-0.0011785834209952,0.0037195591327374,0.0074875714844271,0.0084309747415488,0.005910002237287,0.000737788812275,-0.0050333294663967,-0.0089402440799261,-0.0092290585619269,-0.0057143859531943,0.0001069311521574,0.0057756834941531,0.0090243357944105,0.0087380184134996,0.0052756921492103,0.0001192771888529,-0.0048415401177071,-0.0079998762127246,-0.0084558053669895,-0.0061456219995831,-0.0017730545036015,0.0033680729870014,0.0076645463807234,0.0095778262166812,0.0081500785745746,0.0034896301695152,-0.0030140034355775,-0.0089813509395073,-0.011871775589997,-0.010080576019269,-0.0038239643256925,0.0046604598624937,0.0118324377357808,0.0143230970675031,0.0105730734120165,0.0018112271117343,-0.0082567230225116,-0.0150528841551189,-0.0152945050851396,-0.0086266764557976,0.0021207825432606,0.0121797137082548,0.0169891342904842,0.0142598913030087,0.0050558288678354,-0.0065938483199928,-0.015438881463221,-0.0173922197437748,-0.0114704701131993,-0.0003265267427017,0.0109471972409387,0.0172003824903424,0.0156345459200119,0.0070723087542111,-0.0044943016886544,-0.0138049342249352,-0.0167472889584031,-0.0121769810466307,-0.0023497706489089,0.0081910216259161,0.0147388026289948,0.0145590126020028,0.0080327483361673,-0.0016837018155919,-0.0102226188672508,-0.0139761748031958,-0.0115794623428913,-0.0043418979392486,0.004446460793118,0.010977538390969,0.0125413688371689,0.0086423704680945,0.0011597197586819,-0.0065197520056669,-0.0110252161312991,-0.0105015930908037,-0.0053988685895996,0.0018066345813278,0.0078076737775681,0.0099959555257735,0.0076072634083462,0.001977154308835,-0.0041618137640052,-0.0079821480781991,-0.0078630848620325,-0.0041051708583766,0.0012754641850789,0.0055857557756466,0.0068177748778946,0.004630267028212,0.0004286423684707,-0.0034852015257875,-0.0051955034391901,-0.0041487043495918,-0.0012867110971294,0.0016691785071941,0.0032742634571226,0.003087033284021,0.0016834983807143,7.825547002957631e-05,-0.0009743051770691,-0.0013352046015435,-0.0013402530723929,-0.0013677550084602,-0.0014747720141324,-0.0013477029024727,-0.0005616810821046,0.0010391805077855,0.003060094130339,0.0045474767723168,0.0043599753978786,,,,
-0.0030373939358972,0.0031871462382407,0.0078379747725466,0.0088365324702073,0.0058043060967747,0.0002515905232704,-0.0051495754745547,-0.0078684255312179,-0.0067391456956998,-0.0024957903789381,0.0026293247418745,0.0060298638487582,0.0060171982396913,0.002641713815894,-0.0023674269176921,-0.0064892280017574,-0.0002829654046763,-0.0005865432920655,-0.0013040482504286,0.002468752702926,0.0039047053326263,0.0025573497695573,-0.0004741357524853,-0.0032905980687697,-0.0042816571081837,-0.0029653369490961,-0.0001516581888527,0.0025971673258947,0.0038610628762186,0.0055916077052041,0.0007870586238591,-0.0018735693898566,-0.0036373377223075,-0.0037521882861039,-0.0022926860887138,-9.44524689458358e-05,0.0016539206537732,0.0019736744179681,0.0005979167108132,0.0030751581458282,0.0033479812594428,-0.0001054033053576,-0.0044073693982529,-0.0028105650508786,-0.0011453139850551,-0.0002087635481087,-0.0003221315127987,-0.0012005984441811,0.0052920000093828,0.0025543891381617,-0.0017599515495004,-0.0007773860659622,-1.7145979908090566e-05,9.223706098616484e-05,0.0020066428119426,-0.0014471155964749,-0.0022474878358951,-0.0024054376653548,-0.0016759418830916,-0.0001739638411137,0.0016769056084654,0.0032909950702065,0.0040453343374797,0.0033955757967252,0.001096477965369,-0.0024678379028013,-0.0060835245775518,-0.0079675672823774,-0.0017211674673204,-0.0019449090786088,0.0042308095221646,0.0088585603496179,0.0093119253832793,0.0049540126637938,-0.0023056395344657,-0.0088809798422871,-0.0113967753483537,-0.008534885412345,-0.0017711640867531,0.0054371982108073,0.0144175745491696,0.0110679386975861,0.0031613632553121,-0.004029835883898,-0.0095418773291384,-0.0107753332876397,-0.0071772696570163,-0.000390927890217,0.006594860287839,0.0107816925725015,0.0102987378333545,0.0048551234213167,-0.0045241778191886,-0.016053143090612,-0.017697188296501,0.0076548407588952,0.0107757559506803,0.0069862695238702,0.0050932676174084,0.000761911422125,-0.0054703264236915,-0.0099980066382526,-0.0038120568692447,0.000767669145296,0.0037614124579887,0.0050497307988462,0.004510199743824,0.0023590453480719,-0.0006597877944709,-0.0034358838714506,-0.0049365297914566,-0.0046498988088817,-0.002741205845027,0.0001392886762568,0.0031967147159484,0.0057029697378704,0.0069394445202167,0.0059377863796629,0.0012324181345126,-0.0090640062448931,-0.0047023312831341,-0.0037029737766376,-0.020253580911655,-0.0100357637352157,0.0131855605975612,0.0349078364487237,0.0218734705776062,0.0029112387860398,-0.014878777930822,-0.024774551927392,-0.0324512412681283,-0.0179101454285253,0.01718154507553,0.0267165920093049,0.0259975170972018,0.0173508474582117,0.0049626085545255,-0.0121798942651187,-0.0349329746822445,-0.0361682045148346,0.0033376395377938,0.0189934214040561,0.0214603402389989,0.0148676025442184,-0.0003556914512037,-0.0078719922298744,-0.003218702220489,-0.0023063575265504,6.384340572708659e-05,3.945747251618924e-05,-0.0062968809701075,-0.0145760744843912,-0.0098210657296884,0.0197160481001079,0.0191372752067131,0.0082099312266392,-0.0041261353044844,-0.0073871386820288,-0.0104947238082875,-0.0109071884411261,-0.0002082509061519,0.0095291195245542,0.0146151857846413,0.0001611021457761,-0.0187997885673255,-0.0221388843998544,0.0324338178270044,0.0247474164848165,0.0024550654508511,-0.0261037804881859,-0.0378625435176484,-0.0062900149523401,0.0367421460872936,0.0362327857370262,0.0039155647699803,-0.0204387671862258,-0.0278128483155463,-0.0169009270905268,0.0032246098226039,0.0198391070398182,0.0073498329839286,0.0082140264159357,0.0008383056559277,0.0127654915539971,0.0008981793323688,-0.0202924777509775,-0.0240651548222452,-0.011660191097052,0.008829991132076,0.012315728236349,0.0208789209284131,-0.0045168666405574,0.0057313948903198,0.023417607007941,0.0045045534622516,-0.0292685616955647,-0.0527011749252007,-0.0185011937234835,0.0231069210486892,0.0475628504713869,0.0349421852072651,0.0009615223632309,-0.0417752604317046,-0.0369090702993769,0.0302968829008284,0.0165015035389024,0.0052014341112646,-0.0216809477927623,-0.0255562010067545,-0.0047485976786009,0.0185325851926676,0.0307123352370163,0.0077038598432622,-0.0001857202295288,-0.0046569217112065,-0.0241892182454745,-0.0109271636594833,0.0163515235828523,0.0008869700724422,-0.008894506210883,-0.0229113925306226,-0.0020591204253332,0.0313415770374517,0.0302195515127886,0.016953233518948,0.0005864061759019,-0.0211070434533644,-0.0485358135704656,-0.0407824176686315,0.0041028300251672,0.0321950126527427,0.0448965075426588,0.0307674370316417,0.0042952865200798,-0.0226789172908207,-0.0321319704638427,-0.0143086136945541,-0.0131421142827842,-0.000388465117315,0.0015219497574462,0.0283587515635957,0.0280160064478994,0.0069634711630249,-0.0257468547378634,-0.0137352526374275,0.0030360749194699,0.003245679820585,0.0015793261897975,-0.0048129649991421,-0.0174942292231706,-0.0105756822567928,0.0225616412332488,0.0178407902839224,0.02009165885726,0.006325766915587,-0.030879114522371,-0.0219003698019212,0.0011222597415589,-0.0045247075453031,0.0089902485554382,0.000380486187971,0.0130312736045096,0.0121464771945209,0.0026357024349599,-0.0036913431549221,-0.0063305121111008,-0.015835444214835,-0.0039367679061818,0.0032280107122904,0.0042157489289875,-0.0098911909250766,0.0009567787881667,0.0172922561334814,0.0202956674461095,0.0100578462458641,-0.016670413767433,-0.0285489105234095,-0.0120814836613272,-0.0078828039598996,0.0201001435717277,0.0180895063579604,0.0050826717038553,-0.0096984974038107,0.004613886032936,0.0095847935125242,1.472690775147931e-05,-0.0171181663102919,-0.0217195194585082,-0.0047649349975476,0.019517203246946,0.0148699824433556,0.0038473878278344,-0.0029827997646735,0.0015421594661998,-0.0033121245682987,-0.0185137736060526,-0.004755426799843,0.0111167649078765,0.0146454587402502,0.0046018607520213,0.0014624442464192,-0.0118580115250621,-0.0152281365218234,-0.0094850807098154,-0.0009958489036758,0.0091101910646639,0.0278560796717891,0.0187695387998103,-0.0038353824356449,-0.0118735985750723,-0.0237260796208029,-0.0181307758439065,-0.0146279047911262,0.0100567784567293,0.0215545964837605,0.0250402993516795,0.0171811623403009,-0.0017015638809242,-0.015856694056618,-0.0208178141738732,-0.0145993421519411,-0.0124709246234335,-0.0019300118612165,0.0166057167631074,0.0276951593726851,0.019014384834324,0.0007673992401433,-0.0150632948223474,-0.0190024898908892,-0.0123443859715737,-0.0075820579899905,0.00028093432802,0.0102231228313892,0.0158370519626388,0.0140582884273078,0.0058597063495776,-0.0056626389653628,-0.0154544184611823,-0.0220982028343384,-0.0014641710087152,0.008541902740455,0.0110720185377084,0.0089063337643705,0.003385115366198,0.0010595568412904,-0.0038669175853175,-0.0102169643937909,-0.0088747098936479,-0.0031593358780404,0.0039263698960794,0.0098048408597056,0.0109690889307465,0.0049411443450455,-0.0079394119879059,-0.0091515178480023,-0.0024746293970721,-0.0041754669347106,-0.0027046412643965,0.0040562891907221,0.0067982635811865,0.005229069553832,-0.0017609981455668,0.0048682905512325,0.0052011816854618,-0.0093751821733855,-0.0085000929185594,-0.0059844811382793,-0.0037599259454308,0.0015692495069539,0.0098607162693915,0.0085269709215447,0.0096956226591938,-0.0026740212895251,-0.013461041516485,0.0002162954121227,0.0007982846806133,-0.0025855932249625,-0.0042773943943653,-0.002015283802698,-0.0002102288000143,0.0014828986419402,0.0072882866131828,0.0090675096457113,0.005468695285771,-0.0009085739332447,-0.006932595878217,-0.0099663435046007,-0.0087660366908449,-0.0039080603618073,0.0024904195591664,0.0076903941841897,0.0095237349373716,0.007349204017618,0.0023208327023622,-0.0032026833421286,-0.0068366075695583,-0.0073015798928083,-0.0048882082296142,-0.0010683736555123,0.0024052163782541,0.0043333283264211,0.0044261972164404,0.0031384275592455,0.0012318105341478,-0.0006193069932266,-0.0019967806010758,-0.0026993951766295,-0.0026477081691107,-0.001868827454241,-0.0005597800629758,0.0008880205287872,0.0019952946704211,0.0023938195279185,0.0019864137612663,0.0009660762656736,-0.0002982116230141,-0.0014146991914837,-0.0020724098225761,-0.0020839513266658,-0.0014138707602148,-0.0002158989052306,0.0011576111985947,0.0022267696341467,0.0025424734278468,0.0018772867720476,0.0003647287748635,-0.0014835792630647,-0.002915189594552,-0.0032156548559821,-0.0020576386674134,0.0002283004572922,0.0026566000995639,0.0039801368848934,0.0033587030064927,0.0009335850974819,-0.0021068087656689,-0.0041120688414361,-0.0039108064757097,-0.0015380251608554,0.0017191337330348,0.004017625563048,0.0040107408520524,0.0016475578399728,-0.0017610973342099,-0.0042691711085083,-0.0043979374991563,-0.0019732865218305,0.0017702076093257,0.004847915514694,0.0055658998621603,0.0033996344322939,-0.0007193948396343,-0.0048414660161129,-0.0069436590128569,-0.0059138849687311,-0.0020874922687605,0.0029121055608844,0.0069209108115625,0.0081904429527243,0.0061143431577889,0.0014400115603197,-0.0040609441372074,-0.0082714649591986,-0.0094879237995898,-0.0070343964390298,-0.0015755715427615,0.0049873865947305,0.0100914483831628,0.0114615403031629,0.0081282082036183,0.0010567550594575,-0.0070102989944684,-0.0125860280205387,-0.012988942398384,-0.0077006547952673,0.0011961404803531,0.009828793236317,0.0142855781842866,0.0124756215526484,0.0051676090984168,-0.0043366116258563,-0.0117562473602706,-0.0138469664737353,-0.0098752101730087,-0.0018479786893379,0.0065456052884264,0.0116892842469295,0.0116232065353656,0.0067583583368051,-0.0005090778554256,-0.007001494846751,-0.010167596794434,-0.0090597050858051,-0.0045220701417815,0.0013648013773791,0.0062334547194005,0.0083449169664533,0.0071548117169574,0.0033920011122178,-0.0013240058442702,-0.0051598439238116,-0.0067723729087915,-0.0057673161631573,-0.0027548324393097,0.0009752731076347,0.0039922822604956,0.0052628794305801,0.004504542997334,0.0022351205746295,-0.0005039951134508,-0.0026367678594195,-0.0035139074958465,-0.0031060817165431,-0.0018582186457208,-0.0003586044559367,0.0009343225043122,,,,
-0.009224965304028,-0.0068173469053563,-0.0021415119175613,0.0036627077660535,0.008831913276003,0.0113803603878016,0.0098983558380622,0.0044014503545324,-0.0033280031419191,-0.0102754866231436,-0.0134654298749618,-0.0113545305454142,-0.004620472214201,0.0040687466199688,0.0111924392338153,0.0138777026216234,0.0110906186937778,0.0040275881469714,-0.0044251388496458,-0.0109120713741121,-0.012981516593354,-0.0100286641814537,-0.0034342529936264,0.0041018791002881,0.0096915918830072,0.0113669850497868,0.0087541196398106,0.0031048772747726,-0.0032810109003259,-0.0079975245990424,-0.0094555678962964,-0.0074169127988953,-0.002948769869348,0.0021226459255385,0.0059731931961148,0.0074265661017312,0.006266126439708,0.0031663546540725,-0.0006619512434732,-0.0039429606949674,-0.0057399538574176,-0.0056626727414134,-0.003862582669134,-0.0009063416260265,0.0023698063461885,0.0050005450701377,0.0060793851049845,0.0050375974722328,0.0019606641924114,-0.0022283729740986,-0.0059258287880763,-0.0074275858299965,-0.0057524976561209,-0.0012901722560552,0.0041564978148213,0.00808239639551,0.00846621173334,0.0048394018669294,-0.0013488746070643,-0.0073128234170832,-0.0102025931472289,-0.0084537915355098,-0.0025717840098673,0.0050034615738876,0.010889270994684,0.0122044719616629,0.0078974596145677,-0.0005939728709889,-0.009717564080791,-0.0152168515866009,-0.0140862072557717,-0.0061841698545704,0.0053803412499941,0.015451855541704,0.0191681988830318,0.0143345206972073,0.0026399695787792,-0.0109392065477155,-0.0203254741712012,-0.0211145581773062,-0.0126461493488935,0.0016034305211123,0.0155102474911822,0.0230103707747946,0.0207987789527141,0.0097962278503919,-0.0052710962950105,-0.0179767582244824,-0.0230268457612749,-0.0185383162777265,-0.0067382597710045,0.0071924870845625,0.0175191587373643,0.02041947819053,0.0153953036335729,0.0051122253043531,-0.0060687826005853,-0.0140572653998187,-0.0165957981669642,-0.0138389661149639,-0.0078696305251215,-0.0014897236651278,0.015267875654139,0.0218379449498492,0.0155677160497659,0.0042410823146251,-0.0063508121070894,-0.0119229131885593,-0.0150809667098613,-0.0113970844958851,-0.0030371978504401,0.0009261629392092,0.0086610310170894,0.0104555456082461,0.0054394385635308,0.0180291575887848,0.0058716086545719,-0.0171169654645311,-0.0178570484305408,-0.0094212622195586,0.0001340410487964,0.0025094887737407,0.0031853764269968,-0.0058397543155994,0.0188520284881855,0.0150778999175458,0.0056318894562975,0.0013866378971076,-0.016232052048788,-0.0219726295411527,-0.0119306612093111,-0.0110131895840912,0.0094218712438228,0.0312457275081413,0.0246542920085041,0.0006658990232334,-0.008557431289833,-0.0210100121083431,-0.0202690501896241,0.0018038715844064,0.0066612652737449,0.0045644124132835,0.0079845055887389,0.005300957531215,-0.001778901345921,-0.0067741345566661,0.0015713648443277,0.0039471853019267,0.002672364609349,0.0005066296957393,-0.0015625143345166,-0.0039569763705102,-0.0096074975108681,-0.0205059576944005,-0.0042814785437197,0.0275823484756973,0.03266457047886,0.017396123297867,-0.0053774674130467,-0.0347554330756527,-0.0418068970266858,-0.0182971843913553,0.0279502868867684,0.0363887199684192,0.0210645881662066,0.0040936178899855,-0.0188017970008512,-0.0260503648052534,0.0002985819880052,-0.0112651707863439,0.0149905881013475,0.0064351003870039,0.0050593126061518,0.0151959960235358,-0.0018335636237575,-0.0333623923598494,-0.005775798996733,0.009885646859459,0.0060097760588553,0.0135695135189799,0.0066712524119303,0.004504955973659,0.0034893861053003,-0.0142501644095279,-0.0412122844417658,-0.0355861992687057,0.0419229024742558,0.047803457732346,0.0254164179768956,-0.0086240674264825,-0.0127812427275481,-0.0164643201763324,-0.0420522910903732,-0.0400678858680847,0.0350515263516403,0.0540757032245316,0.0295169467775968,-0.0019837975439779,-0.0236864352869066,-0.0390528187953203,-0.0217725504965334,0.0137907704525341,0.0243789046596713,0.0246108290872845,0.0168988014874586,-0.0182061418107697,-0.0349849495547248,-0.0259450437456393,0.0051385095923111,0.0239548454606559,0.0316638848420308,0.0205253493410543,-0.0051666427368188,-0.0290379747429588,-0.0302420979191932,-0.0106824776435292,0.0122168642424337,0.0146649768520853,0.0107063047139694,0.0088052053054648,0.0048243291221213,0.0030122718204906,-0.0108060541917648,-0.019794896115971,0.0017820513685759,-0.0048310654333235,0.0007766940567891,0.0057619855671911,0.0025463128356435,0.0111315673903552,0.0087768528548811,0.0014824845868392,-0.0077819174252362,-0.0032316930172568,-0.0167983807167852,-0.0216579669182864,0.0097110650904206,0.0200418280992472,0.0207043848383872,0.0082725084109389,-0.0024641130504094,-0.0217392725856457,-0.0197554181949363,-0.0118455312567884,0.0107717095549741,0.022564370530703,0.0152015098120694,0.001079272130839,-0.0134510145614521,-0.0102774601839986,-0.0051635228097863,-0.0028572695499764,-0.0001705036111101,0.0118542568340371,0.0106677123386579,-0.0028558308161109,-0.0119520633831167,0.0047130879951147,0.0073553198948924,-0.0024211018691043,-0.0113596508202597,-0.0055207267077852,0.0011670990378121,-6.0427123240936366e-05,0.0140729728451731,0.0126627894508369,0.0026274516867249,-0.0097406705972959,-0.0177287925725916,-0.0162836510175206,0.0059404639344582,0.0163627372834345,0.0169856403996966,0.0075991599735982,-0.0092280164261453,-0.026863456428086,-0.0059677528123853,0.011649006786314,0.0127951097172978,0.009676018741781,-0.0019423741479684,-0.0125254876449019,-0.0218778511973951,0.0053314071428449,0.0191292725998093,0.0126188458333301,0.0044123701833615,-0.0066739079526234,-0.0192275875166273,-0.0175101989560539,0.0042576477700877,0.0120289686119972,0.0121291011812064,0.0097005325056077,0.0056557128582953,-0.0009921670642178,-0.0103252711400842,-0.0244736102077604,-0.0185810225189196,0.0108521059030742,0.0208564013995767,0.0162801171251355,0.0130786534173179,-0.0019661776889021,-0.0212938002637173,-0.0160840853916696,-0.0048105031192179,0.0031676606418914,0.008151719768783,0.009540431883505,0.0092570984383949,-0.0004858000545331,-0.0124041327633468,-0.0029241920379019,-0.0081805416001083,0.0079601454926439,0.0082226831048727,0.0048790272659538,-0.001957551546294,-0.0113209466702919,-0.0035227797191151,-0.0059355388242314,0.0021032373998785,0.0143715248786909,0.0089558759516736,0.0020575861600287,-0.0060986705512384,-0.0075031551724113,-0.0140374561796689,-0.001428149472238,0.0104437593497455,0.0055228543010585,0.0047597439414663,0.0025345664540265,-0.0092148820907938,-0.0009086039826794,0.0006243169631175,-0.0002060969360138,-0.0011715739089554,0.0006296012718645,0.0035367566356043,0.0053456456045201,0.0016433109700851,-0.0081934434427642,-0.0242242101343518,0.0067769870689621,0.0187960149004825,0.0117196069133015,0.0012381332873614,-0.0063442592838272,-0.0074761861225082,-0.0044122601838348,-0.0032287275496822,-0.0037272264105862,0.0010021786912734,0.0045577594993088,0.0055969893827095,0.0049763195626997,0.0031158280648791,0.0003087324040346,-0.0028799255645847,-0.0054761527045759,-0.0063761281427823,-0.004906765194022,-0.0013152472138262,0.0031567146323185,0.0067178116206933,0.0077911760194031,0.0057319383390977,0.0011724063157386,-0.0041593481847756,-0.0080914314836142,-0.008886871315103,-0.0060016554734245,-0.0004046207278618,0.005705744393381,0.0097349236339352,0.009794102980588,0.0056124418991619,-0.0012031549381385,-0.0077728350182211,-0.0111973641074617,-0.009883926831879,-0.0043028384434094,0.0031932443116752,0.0094026932462951,0.0116806710344967,0.0090829466405065,0.002750741618331,-0.0046136517257034,-0.0099349731167267,-0.0110907374162937,-0.0077905143579162,-0.0016175029769861,0.0047734563194341,0.008890615557391,0.0094430575470627,0.0066878308125292,0.002019566137262,-0.002828408819425,-0.0064574248376927,-0.0080617560146543,-0.0073612136888316,-0.0045016034384429,-9.576208726384812e-05,0.0047043723084027,0.0083542352145566,0.0093941422595923,0.0070971347662279,0.0019520051439644,-0.0043200393162488,-0.0093197477376343,-0.010935483196003,-0.0083209603677353,-0.0023901523025784,0.0044952303505959,0.0095529868756339,0.0108130008790753,0.0079325708090962,0.0022349089873569,-0.0039606479137869,-0.0083325446067586,-0.0094244752791114,-0.0070828365192906,-0.002387996631206,0.0028194471553953,0.0066321247338015,0.0077686933672054,0.006027629186562,0.0023102612593381,-0.0018133523568041,-0.0047946749439334,-0.005718026075657,-0.0045630545351277,-0.0020592040493754,0.0007241566048549,0.0028254061583178,0.0036937662830006,0.0032762087220629,0.0019219690383585,0.0001919897098834,-0.0013411516871993,-0.0022482379989709,-0.0023328679349925,-0.0016570853119959,-0.0005092282400877,0.0006838647002879,0.0014903472504142,0.0016205546705434,0.001041008076411,1.2583884098446089e-05,-0.0009776758934688,-0.0014014997051168,-0.0009509931729661,0.000238354014124,0.0015570491791818,0.0021744500958417,0.0015040651606338,-0.000364611595784,-0.0025675900271394,-0.0038461146052721,-0.0032477191264693,-0.000748226863517,0.002602001098222,0.0051422613711686,0.005455544121294,0.0031543103982413,-0.0008437607144654,-0.0047224320371636,-0.006652035217961,-0.0056862998039243,-0.0022103092333364,0.0022615294508811,0.0057968679827698,0.0069009811392673,0.005136126644738,0.001271040630761,-0.0030683259078517,-0.0060880626604962,-0.0065707970217529,-0.0043685499719574,-0.0004403713890028,0.0035739424034912,0.0060495907372445,0.0060322887285063,0.0035811458973024,-0.0003030748035423,-0.0040783044161384,-0.0062187484389393,-0.0057749629065701,-0.002794512637039,0.0015733106242884,0.0054409241579252,0.0069727337831647,0.0052787243543236,0.0009472571887267,-0.0041062116726354,-0.0074597860692216,-0.0073274442272621,-0.0035016183700983,0.0023822906523584,0.0074825816946823,0.0091006328365891,0.0061315834166519,-0.0001844184534384,-0.0067463684045715,-0.0101671792211925,-0.0085942713852913,-0.0027224805269516,0.0045790660783101,0.0097689440977697,0.0103930398657654,0.0061993440225482,-0.0008435423555225,-0.0075146746740893,-0.0108041497081425,-0.0092450081485958,,,
-0.0142214082484592,-0.0143012184637189,-0.0089735306467886,-0.0007231950149727,0.0070477815044985,0.0115027646710546,0.0114367011185097,0.0075102912960504,0.0016832031518814,-0.0037749756460441,-0.0072108899253797,-0.0080724936016354,-0.0068077482725088,-0.0043155070115286,-0.0013269873903108,0.0018548720832188,0.0050836858847147,0.0078409133213615,0.0090165030217981,0.0073773593957443,0.0025204780306198,-0.0043874759544829,-0.0107483833499145,-0.0136446710912935,-0.011340695554618,-0.0042950812596843,0.0049051579046234,0.0126396493201128,0.0157947781719415,0.0130320071654102,0.005298382568138,-0.0045471337432884,-0.0128112112320584,-0.0163586181494618,-0.0138203279519332,-0.0061467028769841,0.0037458669615878,0.0121153360530483,0.0158514406457506,0.0136525871712703,0.0064758487448633,-0.0028753597914419,-0.0108450100317548,-0.01448516824445,-0.012571718030878,-0.0060464830197743,0.0023903168577686,0.0093841923038095,0.0122927457585531,0.0102529992182938,0.0044830323064202,-0.0023358383748462,-0.0073261483163897,-0.0087227044580463,-0.0065665945544536,-0.0024483456970186,0.0015014768622888,0.0037544308170733,0.0040091741098013,0.0030188168865252,0.0018480630361125,0.0011058540372769,0.0006484506725053,-0.0001092889755479,-0.001550554294971,-0.0033622976893949,-0.0045583222357784,-0.004048903757672,-0.0014268397979967,0.0025355859181494,0.0060630308731291,0.007232443423783,0.0050764833157156,0.0002836136363824,-0.0049852915989273,-0.0081459507540529,-0.0075567831226886,-0.0034310023832721,0.002236294428074,0.0066978562399449,0.0078756550692292,0.0054005859223232,0.0007184410027837,-0.0037673459464756,-0.0060065537300749,-0.0053121611113774,-0.0025235601078497,0.0006827651587978,0.0028225289878988,0.003314015997488,0.0025167160014256,0.0012395764681239,0.0001574014374613,-0.0004946144488683,-0.000860603560988,-0.0011881644171434,-0.0015586463468124,-0.0017869606408378,-0.0015395198880217,-0.0005947233124023,0.0009184021506387,0.0024693519055055,0.0033278699046753,0.0029314852090025,0.0012227719320118,-0.0012364362569747,-0.0034531196430346,-0.0044215151991423,-0.0035924026717184,-0.0011831583301801,0.0018381978515262,0.0041443692528246,0.0046812805911947,0.003228426654005,0.0005388821011959,-0.0020788171618334,-0.0035038822923068,-0.0033855605076103,-0.0021865193834582,-0.0007180280184245,0.0004367484977455,0.0011900770745121,0.0017797392163695,0.0023712613721839,0.0027738899019398,0.0024931315251531,0.0010957203316439,-0.0013505669169861,-0.0040681822837417,-0.0057869248208892,-0.0053429673140138,-0.002375877523005,0.0022656222412213,0.006700346779039,0.0087899312090768,0.0071931576113989,0.0021670446257001,-0.0043486626449763,-0.009481945154836,-0.0107096484932047,-0.0071109233979469,-7.021444325746668e-05,0.0068313528905747,0.0087068721907382,0.005731865124832,0.0168708750775198,0.0047830502472624,-0.0087636220249723,-0.0364974631555642,-0.0195198278756699,0.0228982659362347,0.0210609940022689,0.008048071880524,-0.0037768901472732,-0.0066442235332735,-0.0036924208746734,-0.0001592870814058,0.002435089936823,-0.0049188521315219,-0.0113100135916917,0.0151254260270165,0.0116009684049507,-0.0036009503754293,-0.0160371050386938,-0.0012887848597119,0.0017205161467974,0.0049568213498535,0.0086110594908234,0.005092989564189,-0.0041134381314448,-0.0170235371993539,0.003567945764374,0.0043124023141219,0.00180660118584,-0.0047912767920008,0.0030553750448358,0.0056288944802797,0.0023490925178585,-0.0090857702645034,-0.0097908427117283,0.013921565799344,0.0128601273258344,-0.000135078199838,-0.0163930630524564,-0.0113300275220819,-0.0075099868470709,0.0038365533624829,0.0210601496597449,0.016323548756955,0.0041319018303916,-0.01043527500323,-0.0197926018967463,-0.0177330812761876,0.0089905016230074,0.0148551806426579,0.0063030095968968,-0.0207176026139027,0.0099826748981078,0.0175483763101902,0.0075654676424025,-0.0029216936897239,-0.0199245452193136,-0.0128229953371709,-0.0046539214071453,-0.0123780257411409,0.0145141922975911,0.0367417176578126,0.0385549803460897,-0.0086134775851432,-0.0651296366208358,-0.0581436868374026,0.0261412414485965,0.0500208256417968,0.0338707677048181,0.00964386282763,-0.0151075581002727,-0.0337746692259913,-0.0528649799775798,0.0185985434846997,0.0414705764793635,0.01994411787211,0.001622549877959,-0.0155429924810591,-0.0171411780095003,-0.0179374247184537,0.0146223543396731,0.0135984745431645,0.0018710742543851,0.0033252715292275,0.0033663508846651,0.0001361980823516,-0.0093702346335173,-0.0195564320336438,-0.0278920888900407,0.0171268330895784,0.0474894601548786,0.0288562735788614,-0.0084176720168168,-0.0399884129701649,-0.0282798493727543,0.0004157981494814,0.0172336766500218,0.004564842581773,0.0058013060678571,0.0025988001492887,-0.0041171448479313,0.0129629085296481,0.0137224093315847,-0.0065478418882639,-0.0175886022706274,-0.0214425294587442,-0.0007343683855399,0.0098560095713016,-0.0097783873812582,0.0112075258411682,0.021261139343856,0.0143773841723931,0.0111516881281112,-0.0089595368104675,-0.0394793965363309,-0.0262101499636325,0.0081985937775759,0.0125422125754122,0.0278808702304574,0.0040355908427003,-0.0263792602776319,0.0180334377265639,0.0139061080864768,-0.0029680939895819,-0.0084413427776733,-0.0081742186720083,-0.0177417838619522,-0.0172744718847663,0.018358911237056,0.0131508658190123,0.0103825013625368,-0.0012224798227479,0.0040048171540418,0.0095955226154294,0.002987902156185,-0.0098608962427369,-0.0181949974569305,-0.0314278110749042,-0.0217940393089362,0.0356957748196957,0.0414546044895687,0.0275099362516646,-0.0023956141883141,-0.0340168845309242,-0.0326572089745104,-0.0099269828104855,0.0152985606141752,0.0234649362109694,0.0101481836556874,-0.0078274543620213,-0.0156065678481317,-0.0083066352297906,0.0090825186802598,0.0099660460513757,0.005619824492871,0.0004885655932636,-0.0042367919467175,-0.0055839827767086,-0.002795392534413,-0.0026773072659165,-0.0016100580562167,-0.0003259454157745,0.001267604701257,0.0037652468747564,0.0056715286458773,0.0050451423419297,0.0023068250797236,-0.0017834602068038,-0.0057932397903864,-0.0079005056863183,-0.0067609380539959,-0.002407356819832,0.0034822778633086,0.0082411070540374,0.0095056114477338,0.0064533224937181,0.0003087568331692,-0.0061679308303447,-0.0099658095236244,-0.0092530907437783,-0.0042650997339269,0.0027643987978423,0.0085979343015582,0.0104785415262526,0.0074491771408547,0.0008851665460013,-0.0060851841967978,-0.0100833737740282,-0.0091917747675146,-0.0039522256250504,0.0029320862684246,0.0080444858075983,0.0090394678167465,0.0057754970233357,0.0002144427488139,-0.004771523379515,-0.0069467682992012,-0.0057450511443962,-0.0023014806021432,0.0013903115890253,0.0036156875692936,0.0037332884404025,0.0022823158939278,0.0004684232742622,-0.0006138416243002,-0.0005899585054268,6.071008334204022e-05,0.0003990108508596,-0.0002824663753942,-0.0018874372490122,-0.0034482840714575,-0.0036675753157636,-0.0017818626167741,0.0017903120341027,0.0054699428625515,0.0072699458390957,0.0058865609652838,0.0015122336197157,-0.0041120045206544,-0.0084720189575577,-0.0094904886762431,-0.0065356319242852,-0.0007185962293557,0.0056214539075855,0.0099286783458646,0.0104511469554607,0.0068892987418894,0.0005060583250416,-0.006301029506413,-0.0108525147149723,-0.0112225066351676,-0.0070827272030114,3.672098228338187e-05,0.0072724559413285,0.0115931587751771,0.0111261241449692,0.006035871911653,-0.0014887643321094,-0.0081815543252474,-0.0111738333960757,-0.0093128460470006,-0.0036743001578162,0.0030115954707579,0.0077413002704036,0.0086923281647129,0.0059747971275597,0.001339165101144,-0.0028794395875222,-0.0049279384808336,-0.0043503194333368,-0.0020728662167383,-1.708570744088607e-05,-0.000472756293227,-0.0053151312312363,-0.0101176537681562,0.0161401093895859,0.0182477032072054,0.0073034780081589,-0.0047673870212226,-0.0122250068621252,-0.0134053530049804,-0.0104837173330654,-0.0044486633895326,0.008271084850922,0.0147958351509942,0.0139205968669937,0.0069269260030538,-0.0027034071319992,-0.0105991576282004,-0.0133622696149095,-0.0100609140055505,-0.0025558811179288,0.005509039571505,0.0105025439727679,0.0104680137987359,0.0058777523092438,-0.000794501832658,-0.0063866706327514,-0.008562607794472,-0.0067941223569081,-0.0023874170795044,0.0023617309192299,0.0053707069890075,0.0056913358808873,0.0037308267170883,0.0007738850413234,-0.0018191342175478,-0.0032453181419929,-0.0034167384030791,-0.0026836146720178,-0.0014354280467923,9.187614150924376e-05,0.0017097048071853,0.0030678605702421,0.0036313051725023,0.0029441312585234,0.0009957782634725,-0.0016124804558213,-0.003860151204477,-0.0047642964696145,-0.0038448290304366,-0.0013596352591447,0.0017876392308762,0.004403437178558,0.0054617506247537,0.004490676659321,0.001764320677966,-0.0017606768123869,-0.0047620337211189,-0.0060411128841246,-0.0050141379143304,-0.0019936850316637,0.001886323668599,0.0050951033468828,0.006316373091382,0.0050044948551722,0.0016562423554077,-0.0023421558412998,-0.0052786689964532,-0.0058826047582143,-0.0039414820648171,-0.000429772516596,0.0029629212194657,0.0046815416288185,0.0040770286058798,0.0016821256058606,-0.0011345416332709,-0.0029166470005563,-0.0028617571612695,-0.0011895424232621,0.0010199721143694,0.002417042217208,0.0021074115149123,0.0001593240973935,-0.0023675195626405,-0.0039213045196986,-0.0032854599098566,-0.0003419949969492,0.0036579105318526,0.0065659996885057,0.0064305432222592,0.0026853078516073,-0.0032683502155522,-0.008542851442324,-0.0101742616467895,-0.0067427775954505,0.0006906119011734,0.0088549174801629,0.0135908079074346,0.0115340662174573,0.0014270237416916,-0.0152601431972139,-0.0148027052607548,0.0034882700327076,0.0030350753375218,0.0003451933749346,-0.0015373803542436,0.0005916064467118,0.004845235202668,0.0033915243376215,-0.0002366832848675,0.0016946187354033,0.0007377760461833,-0.0014849308842025,-0.0036045305998397,-0.0046596046295929,-0.0041007629612036,-0.0018599004448785,0.0015263522719075,0.0049199695805553,0.0068868385031694,,,,
-0.0168905800748329,-0.0157086406435632,-0.0081796663042111,0.0029951836727431,0.0134590394119139,0.0188671919284038,0.0167068021192899,0.0075207257113774,-0.005088185406197,-0.0158445062192502,-0.0200838521230265,-0.0158964257175863,-0.0050603979013805,0.0077354864752753,0.0170158091322515,0.01896130770291,0.0130262537863106,0.0020323977557613,-0.0092135781569155,-0.0160711931202342,-0.0160023080556268,-0.0094917533317947,0.0003544001872577,0.0092758863965417,0.013715077645999,0.0122577681770586,0.0060585080731253,-0.0018785133071913,-0.0081607200784157,-0.0104830580885487,-0.0084487062624293,-0.0034558131843786,0.0021514802448006,0.0061704108631261,0.0073616150919896,0.0057268538294049,0.0022613871337596,-0.0015862007387564,-0.0044667987223719,-0.0055122810558999,-0.0045028575199349,-0.0018674211400207,0.0014339852861856,0.0041505701383664,0.0051349682141825,0.0038407961620219,0.0007097218201312,-0.0028518226074404,-0.0050554748007466,-0.0046665732349948,-0.0017717636237071,0.0021417075555891,0.0049364966961993,0.0050169238051924,0.0022620464057841,-0.0018633451727256,-0.0050922609615809,-0.0055898480433027,-0.0029603457261264,0.0015062214211586,0.0054717265506702,0.0067472482099372,0.0044488427918075,-0.0004738209103247,-0.0056251413742786,-0.0083124437704169,-0.0069131545491673,-0.0017795461148165,0.0048013353377087,0.0096223659066709,0.010091179004797,0.0055591648014144,-0.0022080456116474,-0.0096935288776842,-0.0131892313878064,-0.0105860261701197,-0.0025588218526875,0.0074908070444142,0.0148439747860215,0.0156750486122568,0.0090345054532641,-0.0024323005637705,-0.0135213043656479,-0.0188775828039702,-0.0156370285248585,-0.0049584218053114,0.0083941445880465,0.0182713194262591,0.0200654147640312,0.0128798359518631,-9.755493327396842e-05,-0.0131108101037491,-0.0204411474320237,-0.0188996709415618,-0.0091669553181107,0.0045322695738722,0.0162597589868974,0.020932276440913,0.0165371613568956,0.0050257178387491,-0.0085356837643387,-0.0182114937462157,-0.019843735153329,-0.0128897041566919,-0.0006023099140214,0.0115168988093156,0.0182477313514469,0.0169654884201611,0.0086673779491039,-0.0027063093111867,-0.0122241220966011,-0.0161698746193591,-0.0134688256213928,-0.0058042855983819,0.0034216434118805,0.010646405730699,0.0134928612776306,0.0114187313584522,0.0055839008515855,-0.0018148781643955,-0.008359227432072,-0.0120763923157618,-0.0118569867418311,-0.007670157778968,-0.0006276671849677,0.0071510143568502,0.0129920629333633,0.0144876824313002,0.0105074265833919,0.0019678119341559,-0.0081503020494911,-0.0157875707783427,-0.0175119975445248,-0.0121644713146358,-0.0015653947580616,0.0101660216339362,0.0183901279475948,0.0199227199480865,0.0141942455806083,0.0030321229120964,-0.0107245897787607,-0.0248861784558565,-0.0386833770899249,-0.0202820284690189,0.0159718350504497,0.041698250880934,0.0397439559406206,0.0200105121722092,-0.0133716853357659,-0.0506426966687891,-0.0389723794466615,0.0108858691277255,0.0193796749618119,0.0112545323380306,0.0060765611483658,0.0061082732203422,0.0067051636312369,0.0028577572100574,-0.0063379672514039,-0.0236454299020581,-0.0087601345831711,0.0019362844530087,0.0105727503292844,0.015166314814121,0.005994086229535,-0.0062737807430948,-0.0057811271666565,-0.0136354901887059,-0.0026993991425902,0.0174058196589989,0.0138005943641767,0.0001501141350265,-0.0112396421252813,-0.0236623880960913,-0.0083031497882413,0.0031570049809929,0.0231161716300416,0.0239833077940103,0.0016780912568838,-0.0073429867756036,-0.0113304993050868,-0.0214466787983737,-0.0025551905863661,-0.0131220785877863,0.0178171051704356,0.0160407346929913,0.0139047998098229,-0.0040286011584047,-0.0096226286486048,0.0098155586610093,-0.0071742229332222,-0.0072773340956791,-0.0232979606255236,0.007322557129184,0.0160530674827113,0.0045640741116268,-0.0102324123072015,-0.0023804465376571,0.0152800951219095,0.0170508401321617,0.0032348804875064,-0.0146206121482681,-0.0384299573152069,-0.0026248688866628,0.0119586037763315,0.0112667103134258,0.010032121278153,0.0118497847481525,-0.0049124431086711,-0.0020660075867352,-0.0001926505201535,-0.0173845587583948,0.0023037371568511,-0.0040026181398244,-0.0061719221624048,0.0199586374764985,0.0134993367533338,-0.0163212507092423,-0.0406675819786615,0.0379479327928119,0.0334567066934584,0.0056841526148802,-0.0174304670280451,-0.0382949853813337,-0.0228852555067255,-0.0003993680167241,0.0222970558384111,0.0347570787037408,0.0249793433807031,0.0051915518627034,-0.030948939918328,-0.0362903004046792,-0.0022883066927288,0.0069711720785415,-0.0010270060877618,0.0056342278532867,0.0178532646379663,0.0092179302562606,0.0087196126141613,-0.0142811763607605,-0.0117572331485987,0.0045676205543796,0.0017083879798851,-0.010448457651606,-0.0141658042462529,-0.0001773969618481,0.0044820744991106,0.0155885950907939,0.0245441286347261,0.0134158006424847,-0.0056569932740095,-0.0300753872826157,-0.0351071454972414,-0.0045738066021638,0.0208453806126111,0.0193379512049384,0.0151860622367316,0.004123150975923,-0.0115878758869159,-0.0079498887111143,-0.0096553112721701,-0.0030523052335593,0.0083513662401485,0.0068404137868421,0.0036708800570617,-0.0076858248230044,-0.0125288233804522,0.0073850233989186,0.0009619878381052,0.0071126302721677,0.0064634746110723,-0.0008160237573873,-0.009175724455034,0.0003573161629641,-0.0010389867987785,-0.0069999959509598,0.0003376296326289,0.00699004053876,0.0065551957483532,-0.0006040180276626,-0.0083348122117801,-0.0001207196442171,-0.0010900050003176,0.0077535278526056,0.0052352554997787,-0.0002353445072757,-0.0019498060272818,-0.0096214754003185,-0.0218358179484321,0.0045617192727528,0.0189425295389709,0.0151347761288461,0.0059332983308092,-0.0018989940672833,-0.0078019919709866,-0.0097804245096116,-0.0157624404149196,-0.0161616455447977,0.0081154719896341,0.0201883017613429,0.018692883055268,0.0142506870274612,-0.0009440412346668,-0.0117979075616276,-0.0220042925463184,-0.0233990347824899,-0.0049164147050092,0.0133542082767588,0.0188785826239859,0.0161372088405643,0.0093666534542723,-0.0016811407059276,-0.011685691799613,-0.0121919895536262,-0.0092174905350237,-0.0048173092248908,0.000360847138421,0.0049257051403427,0.0075207683908006,0.0075131330259712,0.0052306156911102,0.0017068104984788,-0.0018302752634832,-0.0044116421479397,-0.0055392014289831,-0.0051695748854877,-0.0035864617526246,-0.0012581263604076,0.0012823155453057,0.0035227551342616,0.0050161271515947,0.0053947399337883,0.0044041187258695,0.0020112581085366,-0.0014232636361349,-0.0050285045391287,-0.0075373425610846,-0.0077204330980552,-0.0050098954235985,2.2143470953978128e-05,0.0056732552080066,0.009710891958663,0.0103214632189716,0.0069531709663746,0.0006464220066895,-0.0063009731183134,-0.0111973876429508,-0.0120173900021557,-0.008255056039729,-0.0012176269832402,0.0064146729482383,0.0141248276430424,0.0122660395154389,0.0079773066360863,0.0004311302181925,-0.0073128461692658,-0.0121391949670855,-0.0122324114503838,-0.0077763763558845,-0.0007055697692514,0.006258587675266,0.0107212109238076,0.0113728277574512,0.008218368592443,0.002397162700596,-0.0042125622256843,-0.0095015144053897,-0.0117095860331978,-0.0099817059178053,-0.0047125239413232,0.0024907267898033,0.0092552393094137,0.013169586929286,0.0125838557836434,0.0072636413337541,-0.0013217078266085,-0.0102629123418438,-0.016083373018696,-0.0160427961169233,-0.0094278339538077,0.0017722630247734,0.0132940342989208,0.0201800366494842,0.0189588587158324,0.0094466935911719,-0.0047832057673912,-0.0176875987252637,-0.0233869277571051,-0.0189825015157249,-0.0061429577114905,0.0094716057122252,0.0208120242946542,0.0228202885576165,0.0148483504761924,0.00086176246862,-0.0126243417621454,-0.0197350267463335,-0.0179020621648948,-0.008754764387533,0.0030222860078017,0.0121120633059205,0.0149999175422308,0.0113070588222579,0.0035556027663017,-0.0043336143845066,-0.0089752340277349,-0.0089555839157722,-0.0051764639613674,-8.159020969828477e-05,0.003734142806952,0.0047881129105756,0.0032399410238945,0.0005186665576148,-0.0016341463635684,-0.0021228320819323,-0.000960550145627,0.0009196537674571,0.0022928340805706,0.0023088023550907,0.0008665909464394,-0.0014045542573031,-0.0034552724233234,-0.0042512334707663,-0.0032020043738747,-0.0004733277417147,0.0029522493869857,0.0055844758539765,0.0060718988933409,0.0039157371099767,-0.0001562942665965,-0.0044362056190952,-0.007026879787343,-0.0067600765620019,-0.0037417827419756,0.0007421407471876,0.0048568980879882,0.0070239010903761,0.0065199047130184,0.0036630606442419,-0.0004040827303418,-0.0041834961045457,-0.0063562153699123,-0.0062234345776113,-0.0039311831621979,-0.000395744391558,0.003068820499036,0.0052814683838156,0.0056342637496657,0.0042286885567868,0.0016850724812053,-0.0011958020077479,-0.0036884401443557,-0.0052161073975068,-0.005334536974204,-0.0038005658799296,-0.0007877270469991,0.0029095921860413,0.0059566837349334,0.006974062023175,0.0052554527622845,0.0012747974326484,-0.0033929127333409,-0.0067664160215759,-0.0074011655813155,-0.0050556923830442,-0.000751241291715,0.0037297804357063,0.0065986570921141,0.0067454098933116,0.0041515835090496,-7.739090273579247e-05,-0.0041114996762293,-0.0061572677381014,-0.005304675872869,-0.0020340718586839,0.00195804704351,0.0046098438019559,0.004599257335738,0.0020769773986655,-0.001419912955547,-0.0038459929850835,-0.0038144763625613,-0.0013745759722621,0.0020445777579721,0.0044661184674698,0.0044657804251302,0.0019171891705292,-0.0019790793217643,-0.0053227355462768,-0.0064290826307811,-0.0045943431589323,-0.0004061423532842,0.0044788779408082,0.0079672893033188,0.0083465895041047,0.0050406670695452,-0.000961389373221,-0.0072680192457687,-0.0109644083403998,-0.0099756077306436,-0.0042698750322396,0.0038463843989509,0.0106707030827386,0.0128826297329977,0.0092305537430051,0.0012329048000296,-0.0074741058801579,-0.0128311247396928,-0.0122882478511776,-0.0060566809398553,0.0029402610769835,0.01043661180127,0.012882233792486,0.0091806292730016,0.0012259551584519,-0.0070414478276358,-0.0115923038837462,-0.0103052330277813,-0.0040092182287003,0.0039620995710176
0.0034341010374415,-0.0025224358210518,-0.0075315133860679,-0.0093957994326234,-0.0072945288059519,-0.0021376121487376,0.0039065313742754,0.0083995032837386,0.0096074817905486,0.0070705724667387,0.0016754975425166,-0.004663481913023,-0.0095891950448272,-0.0110567247535084,-0.0081186817928941,-0.0014825892527792,0.0064817911482721,0.0124808798223334,0.0136376218226622,0.0088969891578522,-0.0002191923018564,-0.0100107423748722,-0.0161116187584374,-0.0154850595100206,-0.0079557256102664,0.0035101943840713,0.0139920308979884,0.0187761982487913,0.0155163834651858,0.0053911407205258,-0.0073087136054374,-0.0170347830973707,-0.0194800088032569,-0.013569678612635,-0.0019638274520995,0.0102095915596386,0.0177587389861679,0.0177443088146307,0.0105947517525013,-0.000371802796815,-0.0105853411672598,-0.0161504942943239,-0.0152632207116029,-0.0086855390328701,0.000755403701761,0.0093676968900165,0.0140193365317195,0.0132564445522597,0.007716312015676,-0.0002684976857158,-0.0076522580723157,-0.0118243011705012,-0.0115031049584995,-0.0070988983517613,-0.0004621287675856,0.0058689902367127,0.009638922738941,0.0096914741930822,0.0063184549645177,0.0010300088735789,-0.0041136931797069,-0.0073068311881494,-0.0076246824438793,-0.0052678831395643,-0.0013767456112566,0.002481520317306,0.0049418269991589,0.0053386247722105,0.0038772009717258,0.0014237979603885,-0.0009607089952415,-0.002492917073716,-0.0029136244134863,-0.0024368121029792,-0.0015055639202646,-0.0005308272099282,0.0002610007352196,0.0008398905989013,0.0012796682793696,0.0016267178366892,0.0018028482714913,0.001606210353069,0.0008365348935561,-0.0005029181895998,-0.0020554512704957,-0.003159205172186,-0.0031406460339897,-0.0017259229906823,0.00068201615326,0.0030791582775566,0.0043125221721065,0.0036876103687179,0.001380268778088,-0.0016058286986833,-0.0039253646808571,-0.0045472765355039,-0.003226638844977,-0.0005730286629682,0.0022699284655143,0.0041355099699756,0.0042934439918169,0.0026991144333994,-9.69498055159556e-06,-0.0027414955278184,-0.0043507447432931,-0.0041080980810256,-0.0020640839458414,0.0009022256946237,0.0034489479167986,0.0044125685671886,0.0033818064721271,0.0008792933125513,-0.0019278006181463,-0.0037926355814946,-0.0039298615475071,-0.0023159516767437,0.0003256680076948,0.0028238685662158,0.004043726951645,0.0033882173119093,0.0011031994356367,-0.0017881571747589,-0.0039336633126612,-0.004286748465714,-0.0026143290283021,0.0003780137476569,0.0033639303932183,0.0049949468383689,0.0044868110539324,0.0019347055323667,-0.0017322995683233,-0.0050756477989025,-0.0066129235235488,-0.0053299330699766,-0.0011712553190881,0.004612558748576,0.0094605262936115,0.0100295887628809,0.0033015443265001,-0.0118955992140328,-0.0187199878386066,0.0079415096844161,0.0093759342355292,0.0024906732273308,-0.0007439535843907,-0.0023878815481063,-0.0046460191801257,-0.0134074096289545,-0.0093054999424148,0.0223587134931988,0.0235309859683922,0.011186878048984,-0.0034792720567144,-0.0177297219574652,-0.0307923912267012,-0.0162056755384797,-0.001560868613175,0.0179104599844277,0.0288349263169381,0.0196307550566702,0.0086828401279866,-0.0043752003974366,-0.0163820512708287,-0.0272167745416476,-0.0309388897669912,0.0016234173528104,0.0180934433589657,0.0191928293577389,0.0190648946763723,0.0129458202263207,0.0074511018150462,-0.0056352252077506,-0.0215664636514653,-0.0455925360346348,-0.0208658980510507,0.0278956682160732,0.0350725709262949,0.0215993728130259,0.0027595413494265,-0.0100047735220086,-0.0230136347631676,-0.0065161846142269,-0.0029673001759866,-0.0010906810100172,0.0046548182082166,0.0147598666895748,0.0133333308617831,-0.0040080673056067,-0.0331182873958027,-0.0055654763144468,0.0239889240968421,-0.0009794629813916,0.012455061357257,0.007746733467355,-0.0005763098670851,-0.0159034150932753,-0.0290363125495093,-0.0089121276634942,0.0143209248841042,0.0267414097221789,0.0189623910308986,0.0115053146349144,-0.0134376141902478,-0.0476147510208293,-0.0143262056954908,0.022177004112129,0.0234713371575927,0.0220086342767929,-0.0043026797133823,-0.0330013347185215,-0.0374695000590996,0.0307073372938554,0.0306616992766655,0.0191385586762659,-0.0236754250882963,-0.0242299675256683,0.0029615178405292,0.0096372427124231,-0.0016987946177967,-0.0074290749366239,0.0090563128460308,0.0015153196379534,0.0038700129467564,-0.0120396555149567,0.0096396729082936,0.0144899056696168,0.0016271441668944,-0.0118922762478657,-0.0286022738418287,-0.0179510982363224,0.0239280531859966,0.0273045198066206,0.0131141805984675,-0.0047508516932202,-0.0053771101713746,-0.0084565380107484,-0.0207636795021854,-0.0161185689213939,0.0151639718258338,0.0175964314201172,0.0137709687010664,-0.0021212221858533,-0.0093797257218991,-0.0020044764299995,-0.0021452409303667,-0.0034841177796735,-0.0082408336384694,0.0059588905386477,0.007780413676168,0.0042367557461503,-0.0012181018170311,-0.0017708969583666,-0.0038827261122355,-0.0027790159042209,-6.840400277351546e-05,-0.0036807744569718,0.0010649101793659,0.0088794227034077,0.0106360518379666,-0.0006610856390504,-0.002866536079908,-0.021703796100282,-0.005542851382035,0.0019782646925824,0.0129177862184891,0.0108835687523148,0.0058194853344627,-0.0035681924253056,-0.0050171990485874,-0.0113380471434379,-0.0146247057566191,0.0141059232648873,0.0182446730182804,0.0064543529511848,-0.0153265035429044,-0.0228729719709884,-0.0017431610933326,0.014978309246326,0.0161711464478204,0.01140058397879,-0.0008812535837616,-0.0130120423443912,-0.0167684610575659,-0.0051751846326031,-0.0021086603527837,0.003008637252987,0.0103349960227146,0.0144946062531706,0.0027173197476945,0.0019201986303863,-0.0040543439373695,-0.0131075227104053,-0.0083062100049883,-0.0028548128426532,0.002119418493746,0.002911477645741,-0.000607917454647,0.0121568337956625,0.0186365454963196,0.0015802489337411,-0.0180708608815323,-0.0139197277575435,-0.0144992857365023,-0.0011148965929125,0.0159587015004486,0.0145481228471591,0.010995787300832,0.0044629818017277,-0.0039583404567626,-0.0189194158785462,-0.0290287633594792,-0.0023728835771054,0.0121035196919545,0.0270349935017038,0.0202716467613775,0.0064453563021006,-0.0132909687572664,-0.0347112047313895,-0.0062765847761509,0.004838777612034,0.0039696588264038,0.0034084676097893,0.0044841668757348,0.0089758900338986,0.01073105698252,-0.0007687475366789,-0.001405442933259,-0.0015895388212322,-0.0161702265974701,-0.0199801000987484,-0.0004673223597167,0.0073333937588183,0.0117757831838722,0.0130428717341313,0.0101848335355075,0.0052098112021661,-0.0051622705667699,-0.0113245852690771,-0.0162606297635264,-0.009630962728025,-0.0019556677740834,0.0052133545442556,0.0101269175995615,0.0115194062550808,0.0091054186179896,0.0037346958281393,-0.0028173585393685,-0.0083630659595762,-0.0109919670837684,-0.0097382578407322,-0.0049817885977327,0.0016195941213443,0.0076972144626888,0.0110323467068418,0.0103596879799732,0.0058147054624966,-0.0010879346545006,-0.0078969360290586,-0.0119822076071639,-0.0114738316350326,-0.0061397008975943,0.0021981330276779,0.0101110412722703,0.0139425228521557,0.0116032844939295,0.0038345499273026,-0.0058909944589834,-0.0129575436574595,-0.0139320174796889,-0.0083808422913214,0.0008563103120985,0.009144226729125,0.0125031694558191,0.0121545694148956,0.0024937308085976,-0.0051676868605778,-0.0097128459055489,-0.0094737811923157,-0.0052533852935152,0.000486649918081,0.0050891483931739,0.0069118416215008,0.005765134237523,0.0026152838359718,-0.0010685556228311,-0.00392972420495,-0.0050939243677143,-0.0042953352922801,-0.0018676275700886,0.0013285693300075,0.0040824565991403,0.0051981911275487,0.0040163521067586,0.0008578392889567,-0.0029380217568388,-0.0055512295840766,-0.00560158404306,-0.0029384491817122,0.0012100941576054,0.0048563140819967,0.0062770698751622,0.0048520312207285,0.0012941055797625,-0.0027655086068494,-0.005557304719423,-0.0059321641805747,-0.0037960279737698,-9.613215634237804e-05,0.0035877397303481,0.0056786317557741,0.0052486848585817,0.0024496114517825,-0.001472228541938,-0.004662396608519,-0.0055138922916765,-0.0035167245140148,0.0003703040915307,0.0041131851426536,0.0056330763739545,0.0039495062784537,-0.0001963313028831,-0.0046209023444774,-0.0067948490222145,-0.0052245976949033,-0.0003871763229221,0.0053432737222645,0.008842038084717,0.0079176788903556,0.0026239225531629,-0.0045893470098364,-0.010061750070839,-0.010846070002073,-0.006313530808705,0.0014571541585335,0.0087236042460502,0.0119835057379641,0.0097192699205013,0.0030891728700685,-0.0047347339363188,-0.0101695755340251,-0.010914263052986,-0.0069152334347198,-0.0002210495945183,0.0060949112244167,0.0093603235301505,0.0084174523841521,0.0039906081167754,-0.0017605755435468,-0.0062492573580269,-0.0075966550542604,-0.0054305853959919,-0.0010057139045851,0.0034271778870715,0.0057320294323553,0.004945221661495,0.001731170954666,-0.0020233247558525,-0.004264838517652,-0.0038905006886646,-0.0013022389371737,0.0018879506933506,0.0037964708499961,0.0033090591989007,0.0006752300036379,-0.0001470950246363,-0.0048224671408902,-0.0046540846134119,-0.0021909272065735,0.0013431801027779,0.004206096525617,0.00503567622492,0.003511081397099,0.0004404395252361,-0.0027174082088688,-0.0045928457298456,-0.0045099254406804,-0.0026837576367902,1.5380470233754874e-05,0.0025340179578888,0.0040619363944275,0.0042241639705124,0.0030452906795753,0.0008394021715148,-0.0018385333041161,-0.0041964589265491,-0.005312453671192,-0.0044597045095252,-0.0015653418663139,0.0024851402411361,0.0060054260092873,0.007203569666658,0.0051332200464479,0.0003744503758705,-0.0050248876814486,-0.0084433138988709,-0.0080145462899344,-0.003677567115955,0.002665400629759,0.0080182402675387,0.0097562706029939,0.0069347953286151,0.0007762059744805,-0.0059005623073343,-0.0100127137282074,-0.0096519462799915,-0.0049492430711007,0.0020140631154911,0.0081744966281763,0.010864673454419,0.0089666356117462,0.0033348092880527,-0.0036558600655673,-0.0091714405299308,-0.0110818248289162,-0.0087430413425279,-0.0031435934046174,,,,
-0.003979534287523,-0.0017302786827536,0.0008881491077811,0.0028258402813765,0.0034736406726826,0.0028497771944566,0.0014620135666111,-2.050234491469644e-05,-0.0010916624600129,-0.0015847648272721,-0.0016452483425561,-0.0015364736941781,-0.001400046642677,-0.0011304336710422,-0.0004670913843724,0.0007353865168215,0.0022432254069017,0.0034067968626216,0.0034485721665316,0.0019484572929906,-0.0007721236636113,-0.0036486702214166,-0.0053229419443456,-0.0048340993379875,-0.0021765567709418,0.0016007610810124,0.0048425231922051,0.0060786088471309,0.0047566456923657,0.0015175511148841,-0.002149685385546,-0.004682018993302,-0.0051973805148912,-0.0038104481900612,-0.0013843598271423,0.0010521945824621,0.0028177728079562,0.0037213508390778,0.003835417151297,0.0031767416934825,0.0016231237902862,-0.0008300088376406,-0.0036988351404885,-0.0059124235807703,-0.0062089244761834,-0.0038733224727839,0.0006355878641732,0.0056209833274793,0.0088007013408934,0.008414434419941,0.0042185818552114,-0.0022059765567968,-0.0080764340673236,-0.0106957094692247,-0.0087545664996365,-0.0029796811748475,0.00418213680759,0.0096562913206124,0.0110815281751891,0.0078199037378078,0.0012342399263956,-0.0058723883461403,-0.0104384868438413,-0.0104736633897694,-0.0059673337326894,0.0010598099022594,0.0074447235113171,0.010338556668524,0.0085346771036169,0.0030063681952768,-0.0036004958955381,-0.0082404557636287,-0.0088796724733366,-0.0053994208638547,0.0003996035157665,0.005685448671641,0.0079628315028134,0.0062637072374541,0.0015755683510771,-0.0036921766226092,-0.0069160326566497,-0.0065360217918859,-0.002795903176607,0.0023895774252484,0.0063731435939385,0.0070810322866963,0.0040629774123772,-0.0012361660108422,-0.0061438024564155,-0.0080728604909896,-0.0058563235458437,-0.0004262996771577,0.0055586779581142,0.0090133855709009,0.0080189035730491,0.0028757025946139,-0.0039664720098605,-0.009105501599971,-0.0099104861587214,-0.0058745555019837,0.0011122472735261,0.0077007889287991,0.0107288284799265,0.0087402581652305,0.0026560108404062,-0.0046829852830397,-0.0098573630956831,-0.0104705266136726,-0.0062753638242054,0.0007073186245191,0.0071619132595477,0.0100965311126387,0.0083047286090338,0.0029078140257482,-0.0033125654870433,-0.0074118066962096,-0.0077655607346697,-0.0047349369837729,-0.000225471303491,0.0034952262242241,0.0049763468769105,0.0041210851895664,0.0019183853090906,-0.0003067721106232,-0.0016142066052173,-0.0017874504202437,-0.0012332684019287,-0.0006012185611727,-0.0003599453718613,-0.0005455044233198,-0.0008002325735238,-0.0006607773645349,9.393091071090562e-05,0.0012533735755048,0.0022545729659772,0.0024820786279384,0.0016294690607165,-7.296266684707341e-05,-0.0019125865228773,-0.003039286157223,-0.0029244378323982,-0.0016559922730176,0.0001247616009888,0.0016096884741921,0.0022817575992865,0.0021423766031499,0.0015677668388703,0.0009287089353812,0.0002939646516682,-0.0005301080558829,-0.0016612218039554,-0.0028155667259916,-0.0033198875960169,-0.0025182012293007,-0.0003036829862866,0.0026160348424014,0.0049458761605044,0.0054306217902325,0.0035422239430482,-0.0001525907977095,-0.0041578645821209,-0.0066907362615951,-0.0065054394523769,-0.0035070929416745,0.0011464472368375,0.0055178945863487,0.0077277209828618,0.0067744626357261,0.0029773498585942,-0.0021405202121915,-0.0064756161849985,-0.0082207840802048,-0.0066313378108191,-0.0023442640299045,0.0028976156729732,0.006987866887103,0.0083222688841173,0.0064129790806635,0.0020239726080318,-0.0031709675982116,-0.0072229326622864,-0.0085902093100398,-0.0066703724129714,-0.0020532942907366,0.0035943311412358,0.0080503250557267,0.0093740908102324,0.006784558696061,0.0011708704668723,-0.0051188315160296,-0.0092582436466106,-0.0092928284475112,-0.0051602750050631,0.0012081750880021,0.0068069740483341,0.0090339781220184,0.0069616436058547,0.0017511686407576,-0.0039811612183542,-0.0050071290292345,-0.0073546494993135,-0.0039612529034312,0.0007209605133787,0.0043380231704395,0.0053140539305849,0.0035436521212449,0.0002994775973084,-0.0025615686414239,-0.0036355720099512,-0.0026636217662901,-0.0005102271049437,0.00149069177451,0.0023595936240259,0.0019429610377512,0.0007960347419837,-0.0003448422958959,-0.0010665057874778,-0.0013995304663234,-0.0015337010303186,-0.0014504148808005,-0.0008576980913694,0.0004730994094235,0.0022649851112142,0.0036299085022305,0.0035021769721797,0.0013834774997646,-0.0021083471609914,-0.0053252269082737,-0.006374621533126,-0.0042207273088288,0.0005383285886587,0.0057439496568103,0.0086755045919801,0.0074980788994223,0.0023683864319326,-0.0044579202325049,-0.0096465982386025,-0.010444670559341,-0.0061347611049243,0.0014757324059701,0.0088210227811611,0.012269759299686,0.0099379012703572,0.0027130755709478,-0.0060710776089507,-0.0122099998038171,-0.0126914132136734,-0.0071962342659836,0.0017311575573046,0.0099098919028463,0.0135122601340162,0.0108550422780197,0.0031767658972105,-0.0059365497257511,-0.0122194928584639,-0.012734877580655,-0.0072724959188029,0.0015591913491847,0.0095951759773919,0.0130341222773029,0.009946434043792,0.0005890848248875,-0.013425440908709,-0.0012128611891034,-0.0041775336791565,-0.0097482749055071,-0.0043472642807113,0.0100185299369856,0.0216049604509796,-0.0075079803043227,0.0017305451592545,-0.0113281552855776,-2.4406415700330054e-05,-0.0100678579197987,0.0133975140814457,0.0054175394291021,0.0015072282795377,-0.0045532004039252,-0.0297580157209805,0.0047281296623244,0.037723550222555,0.0215020022731215,-0.0171827315260263,-0.0368440094602118,-0.0143724500768492,0.0122113936162905,0.0042499478808925,0.0324636141379575,0.0174544136110887,-0.0055692135255282,-0.0410029818966561,-0.0402068364227464,0.0289035781630426,0.0399643445540724,0.0108103733560207,-0.0131052275971107,-0.0252822075036887,-0.0014851416027725,0.0011181710819585,-0.0044122820476732,0.0140112475530624,0.0249980259695373,0.0012656918780652,-0.0199132812699665,-0.0320741463363318,0.0015958117699508,0.0174581640764934,0.0133331725574269,0.0109468846124037,-0.0185355632845237,0.0053750041276125,0.0124206839538773,-0.0052224650298604,-0.0218499727464949,-0.0149567671309558,0.0055485851916972,0.0160572176186205,0.026486156411812,0.0030264600965915,-0.0300137257725168,-0.0079416300762776,0.0054245811513638,0.0180273548011853,0.0047848105023081,-0.0127299048030436,-0.0157608383156983,-0.0061848262949618,-0.0009822538077028,0.0110311084162228,0.0220070357371632,0.0155054377375008,-0.0005357305251914,-0.0148349804824894,-0.0282027220425027,-0.0086201095340384,0.0015029029228615,0.0088774556479955,0.0109564162613752,0.0117130438685553,0.0095961790087262,0.0015437043452483,-0.0125614767524095,-0.0231200091094724,0.0021620519963012,0.0077638499263288,0.0138795643952544,0.0048714995088671,-0.0139635853413832,-0.0224164940229147,0.0017783465514755,0.0158128868948094,0.0164267501546977,0.0103836403339489,0.0016599271172878,-0.0049569320128107,-0.0146159831670048,-0.0206171152273679,-0.0238954944393896,0.0094598207881891,0.0235864603031646,0.0215811311270555,0.0161729520348428,0.001087882964127,-0.0098360400805439,-0.0200433820222997,-0.0194573238263567,-0.0089230592201196,0.0017565120244575,0.0121706942240405,0.0174912298730358,0.0124160417327802,0.0029725544814012,-0.0028756519940392,-0.0068787076605851,-0.011294107868923,-0.0108954753536833,-0.0045426430534206,0.0025827258779731,0.0077237814072229,0.0091486429320105,0.0068005717231962,0.0021948343642223,-0.0024095800632151,-0.0051438127668661,-0.0053730076129784,-0.0038187958528072,-0.0019345019600933,-0.0009110803369561,0.0064517226768808,0.003566308777061,-0.0011749730318359,-6.660131186592555e-05,0.0016399621943198,0.0028274674588288,0.001853213800899,-0.0028732162150895,-0.0119954614448435,-0.0071777427323975,0.009936239379008,0.0091736564265368,0.0027093540556829,0.0004945464777908,-0.0041275768417388,-0.0045732853476743,-0.0037472268127204,-0.0010574956520325,0.002922572294208,0.0038336276607821,0.0027851685681628,0.0009273922732061,-0.0008590406936753,-0.0020528837395229,-0.0024403951557128,-0.0020190554332874,-0.0009411426447557,0.0004846719796315,0.0018009460350415,0.0025073841907024,0.0022715329831614,0.0011305914479697,-0.0004705311426661,-0.0018699766177401,-0.0025135219052381,-0.0022139429073057,-0.0011892500612179,0.0001146040070202,0.0012671013555953,0.0020029426497707,0.0022245651695738,0.0019182335983262,0.0010929796371645,-0.0001811090659587,-0.001662457086506,-0.0028888803819963,-0.0033101070701212,-0.0025654795166193,-0.0007242392755852,0.0016738036209339,0.0037911050320007,0.0047792934217368,0.0040793734414998,0.0016750252536028,-0.0017706857857738,-0.005008821243006,-0.0066125014862698,-0.0056181869144777,-0.0021057673470936,0.0026507721653033,0.0066461959669295,0.0080486883828534,0.0060917410539985,0.0014873322873791,-0.0038523079719691,-0.0076523657034256,-0.0082847468175791,-0.0054891507612412,-0.0004767371313062,0.0046251591914472,0.0077131325756356,0.0075884759942083,0.0044041772275469,-0.0004585799033737,-0.0049802860591909,-0.0073148950478977,-0.0065319608647347,-0.0030123931496827,0.0016855888726651,0.0054807501593123,0.0066940585013962,0.0048319084025257,0.0008368828363919,-0.0033534428806006,-0.0057498618455188,-0.0052838868446551,-0.002304706916948,0.0016435225969339,0.0046202217381239,0.0052377360328456,0.0032951157388738,-0.0001859671621483,-0.0035042359078432,-0.0051093348944964,-0.0043113225115029,-0.0015457659633885,0.0018941822472061,0.0044858299138509,0.0051415195189964,0.003620657024412,0.0005686550069439,-0.0027699621899248,-0.0050345853614216,-0.0052730986162917,-0.0033350460691965,3.1379968524967114e-05,0.0034542547182263,0.0054976155464543,0.0052713563623257,0.0028242340999202,-0.0008461156966898,-0.0041742450258545,-0.0056722885394132,-0.004610915552303,-0.0014361336403981,0.0023450678837065,0.0048580427563144,0.0048356228626717,0.0023361388616985,-0.0012507979786734,-0.0039569681670559,-0.0043230924536965,-0.0021945695440068,0.0012119970073736,0.0039806897886648,0.004524936539072,0.0024338178947818,-0.001288936331922,-0.0047126071138947,,,
0.0020308839641297,-0.0039310081369287,-0.0077952631829757,-0.0079706331281484,-0.0046246063302552,0.0004861431525518,0.0049103383112,0.0066652769187832,0.0051272995382904,0.0012617650110651,-0.0028904096973373,-0.005222158019999,-0.0045960445482624,-0.0014163101841942,0.0025549536060551,0.0050816596038661,0.0046301796998391,0.0012499039984748,-0.0033306957409416,-0.0065200048959961,-0.006245806822115,-0.0022017045908789,0.0037697049715199,0.0084900765728887,0.0091268699006307,0.0048519724666669,-0.0025012732454559,-0.0092526498784059,-0.0117894801399946,-0.0085407264136329,-0.0008975089230075,0.0074540130353573,0.0124296037176839,0.0116337780814054,0.005517419639306,-0.0029596379614091,-0.0098899917167341,-0.0123107336335094,-0.0094603638197762,-0.0028884804584854,0.0044537296199543,0.0095801278551319,0.0106647675902553,0.0076320685021169,0.0019952819161401,-0.0039124413491178,-0.0079365546942455,-0.0088819921254572,-0.0067855097842802,-0.0026746934280796,0.001963187242112,0.0057206922002429,0.0076238627165735,0.0072558135056603,0.0047356559913703,0.0006731578872953,-0.0038689393932858,-0.0075070185814632,-0.0088903098951104,-0.0072431273269507,-0.0028362847969574,0.0029375680052994,0.0080158918761586,0.0104629823911833,0.0092367138635199,0.004597161543532,-0.0019657054987077,-0.0082112730865582,-0.0118686777408392,-0.0114116361860961,-0.0066741753997351,0.0009303493475507,0.0087550843710641,0.0137977741487777,0.0138383930841869,0.0084180570216993,-0.000753196557465,-0.0102280461334937,-0.0160819166999913,-0.0155961369477618,-0.0086155131540891,0.0021689326943521,0.0122798685788265,0.0174075219330431,0.0153269104218856,0.0068866340742757,-0.0043504984278228,-0.0136309360613345,-0.0170454745913773,-0.0132230770610751,-0.003942472235139,0.006655966265292,0.0139469723797537,0.0149187063365255,0.0094806453738275,0.0003694057404259,-0.0082362456178782,-0.0126617692655213,-0.0113170224677091,-0.0052356566636443,0.0025793983630702,0.0086190823843011,0.0104276987698786,0.0075653744236669,0.0016158747553495,-0.0046550947648362,-0.0085377919371809,-0.0084723324908006,-0.0046090120368306,0.0013069478834483,0.0066482028736127,0.008973051622806,0.0070799850765656,0.0041035498034499,-0.0051831025442984,-0.0102933876751306,-0.0112661361689437,-0.0072515371447166,0.0004890983446585,0.0089474070719916,0.0145014295933262,0.0143665834601004,0.0077473307180481,-0.0038303962639499,-0.0171436711044267,-0.0284603055190274,-0.0199615049275818,0.0073652694574194,0.0236504646595088,0.0276115659549375,0.021105560910838,0.0059489964103919,-0.0161987884672371,-0.0447581779408861,-0.0301744944515346,0.0170408586339425,0.0177188223698267,0.0148618732892312,0.0109314922562552,0.0066982150233835,0.0016813988066022,-0.0048718174877175,-0.0202171913158806,-0.0157709050019925,0.0034139519602956,0.0077958668750872,0.0040714479034437,0.0021729253153297,0.0054682761429391,0.0035538458544464,-0.011270624882004,0.0109595835128659,0.0097209152505977,0.0013228867905777,-0.0096239074681642,-0.0201311044964898,-0.0235336795165942,-0.0040738660752863,0.0268876356681582,0.0294773451094527,0.0177553056451883,0.0013137536546448,-0.0130183241703975,-0.0252455808694428,-0.0363530203998182,0.0074363668435034,0.028941654838873,0.0187628121085229,-0.009239080901528,-0.0373451411348768,0.0110448251808155,0.0303078005781861,0.0280021136013612,0.0075287898280369,-0.0201273336193113,-0.0448361425712187,-0.0440458376323886,0.0143910228271113,0.029468412829007,0.0295857387303757,0.017984262860924,0.0025663192219469,-0.0036278744288147,-0.0083665605247544,-0.0113191665151406,-0.0356505998551055,-0.0158577690263608,6.702638072921129e-05,0.0208128343728927,0.0406036350663991,0.0190894500294337,0.0144694716002427,-0.0135552411507781,-0.0529452259632084,-0.0170148777628478,-0.0258772266174526,0.0142029127172622,0.0564470878046936,0.0293239079932018,-0.0019807836989442,-0.0248119857090925,-0.0187054494942148,-0.0088289576098488,-0.0135746792083983,-0.0139301214255589,0.0319415968546742,0.0310845917340295,0.005370888254744,-0.0134026924174068,-0.0273384896919062,-0.0068399373512018,0.0160409349694305,0.0248033847161769,-0.0095521266291176,-0.0287144991261044,-0.0037883202220681,-0.0154946838668354,0.0268458981611914,0.0402531860620938,0.0100216278290922,-0.0153263352215085,-0.0538726698272085,0.0134064592094896,0.0095203861026605,-0.0220122985648477,0.0203885578972633,0.0052150610608149,0.0173845048937794,-0.0049888175688096,-0.0002102063890724,0.0003542334852578,-0.0122658788307259,-0.0113563159808053,-0.0162359914865381,-0.0003248000539267,0.0310035273522413,0.0294755891555791,0.0017144514341194,-0.0168844509414397,-0.0243686885330065,-0.0144355706486996,-0.0174105202315863,0.0142670504691961,0.0262418042579284,0.0212858245048444,0.0080334662757367,0.0011600329142164,-0.0071767592033434,-0.0275986302690864,-0.0528885882066419,0.0033646393589943,0.039612194403361,0.029064022190629,0.0120598610833474,0.0033629853772614,-0.00688925202733,-0.0255211811777625,-0.0156257732771035,-0.0039778426678153,0.0061742151867514,0.0146284588161462,-0.0021624632476347,-0.0075696471166843,0.0060349512559776,0.0186174191926283,0.0092535244237542,-0.0107823566943684,-0.0205079056770021,-0.0076160089225039,0.0084185460599198,-0.000485950191259,0.0031920003041637,-0.0059727188538172,0.0078726182353719,0.013463703247974,-0.0077663861498614,0.0032774484782207,-0.001539324426745,-0.0083161623644201,0.0025138622329887,0.0015626313521982,-0.0114598423148091,-0.0129478678298578,0.0090952228229353,0.0214495531939197,0.0144080636851258,0.001475817149169,-0.0112581375332119,-0.0186415175476973,-0.0197324034911326,0.0026657977766297,0.0060915183343126,0.016368709717745,0.0236281092131776,0.0103277456312295,-0.0139089225149829,-0.0237702568704058,-0.0133671325821692,-0.006049024592754,0.0091689501672542,0.0054614172699454,0.0018694171032063,0.0208403451122131,0.0156171007984404,-0.0006587376606319,-0.0180971509044678,-0.0250399308150632,-0.0102157753385149,0.0007651741855692,0.0082340710413447,0.0147275763185397,0.0147493108547657,0.007481568584562,-0.003302815158526,-0.0102696843615339,-0.0102194363344623,-0.0082938768712237,-0.0038409979041473,0.0020226025214415,0.0070718167248525,0.0091280095888011,0.0071842423022802,0.0020072067432838,-0.0040822182839878,-0.008212930312428,-0.0083330806543478,-0.0042801442935824,0.0020350066919844,0.0074933131779925,0.0092912496507491,0.0063652556630958,-1.1280911441335146e-05,-0.0067799487150054,-0.0105523165512825,-0.0092760778011417,-0.0033043653460862,0.0046740033086589,0.0108560938501714,0.0121523340604056,0.007743552581252,-0.0004327784433427,-0.0085722578376395,-0.0128625395174292,-0.0113547690828571,-0.0048626977404195,0.0035425368741984,0.0100912127762476,0.0120670479277928,0.0089138817479425,0.0022884639240834,-0.0048252484449862,-0.009462243489667,-0.0098970298586787,-0.0062683816205853,-0.0003993965667894,0.0050760996357147,0.0078914645762708,0.0071104882790995,0.0034480456870508,-0.0011820679706616,-0.0046442060282157,-0.0055790302730624,-0.0039391427343927,-0.000852070028964,0.0020513333486136,0.0034670096335728,0.002992180047347,0.0011898358673085,-0.0008314629867784,-0.0020459603373613,-0.0019958734158782,-0.000914970510281,0.0005005200128061,0.0014951096696269,0.001613660893346,0.0008692958778501,-0.0003149217416185,-0.0013299414424214,-0.0016645401254139,-0.0011401538214749,-6.030536604686745e-06,0.0011591416979303,0.0017245420110125,0.0013529303979091,0.0002282741150588,-0.0010025053889204,-0.0015931016007165,-0.0011753047753195,-3.486695423890919e-05,0.0010428979601873,0.0013023014835945,0.0005674223837042,-0.0006043704173296,-0.0013111945501342,-0.0009672949975521,0.0002488341331233,0.0014840458368915,0.0017812350585967,0.000755551746142,-0.0010722037280928,-0.0025328180629726,-0.0025334501263099,-0.0008049416834224,0.0018181192710069,0.0037964126718834,0.0037630562412772,0.0013871401700253,-0.0022866226424703,-0.0052732309117387,-0.0056902691216588,-0.0028751787013513,0.0020577319187528,0.0066124716179797,0.0081607804123167,0.0054379987105221,-0.0005664047919657,-0.0069348397330786,-0.0102969474834987,-0.0086650012011944,-0.0025749161162188,0.0051271857740656,0.010723162881083,0.0114831649043871,0.0069748201024269,-0.0007870450653436,-0.0083335975835104,-0.0123364171244598,-0.0110606102411437,-0.0050707920574218,0.003065373648108,0.0099148630709909,0.0126510777719036,0.0102172791940582,0.0036982842609615,-0.0042062607587847,-0.0103278077605156,-0.0122972088781884,-0.0094397287329009,-0.0029788504325002,0.0044970986366081,0.0100800693352371,0.0116840814269143,0.0088255059838311,0.0027324136592832,-0.0042217103824739,-0.0094640862853838,-0.011138404205587,-0.0086872148679257,-0.0029921875159602,0.0039071292219093,0.0094518689556025,0.0114422733803303,0.008914705373474,0.0026623289646234,-0.0049111398069288,-0.0106635334774326,-0.0120221306068278,-0.0081780488724996,-0.000596921300008,0.0074697437624287,0.0123517085026264,0.0116526267755891,0.0054878488209471,-0.0033950975732722,-0.0107997668030285,-0.0130918728416599,-0.0090551226272313,-0.0005953386194559,0.008144519890425,0.012851843058368,0.0112360368563136,0.0041912696931837,-0.0046959427176621,-0.0110315617845719,-0.0118631774337734,-0.0070861611560592,0.0006819707728714,0.0075807096042012,0.0104810913565524,0.0084346749005046,0.0029236257241592,-0.0031187834252898,-0.0069145271181576,-0.007174200615338,-0.0044828045724222,-0.0006685921842591,0.0023399457525296,0.0034779867848568,0.0028768638296202,0.0015281646242023,0.0005634398324527,0.0005555951456955,0.001197022950174,0.0015243041577602,0.000583222758424,-0.0018317493180227,-0.004819091335517,-0.0066773362410951,-0.0057936490738307,-0.0016692362815032,0.0044994413926924,0.0100896260645765,0.0121682522925359,0.0089916929851229,0.0011379592404736,-0.0084055445812748,-0.0154021617915218,-0.0163141172458788,-0.0101017818652749,0.0010550261710706,0.012540532394794,0.0192910096491746,0.0180966703627537,0.009145688648313,-0.0039412088722482,-0.0156438877266718,,,,
