0.0036545400014197,-0.0037322398392279,-0.0091879773884315,-0.0104266168304952,-0.0071264726256054,-0.0009053275127192,0.0054945795855713,0.0093761761985886,0.0091491328070223,0.0049402863940238,-0.0014404946900826,-0.007205428485976,-0.0097643625384708,-0.0079163340001538,-0.0024794568221152,0.0040377543961613,0.008636357481523,0.0092894100774807,0.0058737428913976,9.79174629186242e-05,-0.0054392831800141,-0.0084677888346951,-0.0079313419484028,-0.0042553490572844,0.0009455178054431,0.0055284761604334,0.0076567957566576,0.0065598582968693,0.0028864193837528,-0.0016008352092389,-0.0049044515671893,-0.0057787960391227,-0.0042595883506609,-0.0014620855097878,0.0011643613143442,0.0026324971676472,0.0027998836689534,0.0021793116963057,0.0013971079934167,0.0007350905504271,8.308105422973146e-05,-0.000739316357284,-0.0016450887864335,-0.0022481249353971,-0.0021426253979124,-0.0012295201996146,0.0001702314559599,0.0014750961804124,0.0021501967961361,0.0019785787243217,0.0011537845827675,0.0001438192593831,-0.0005977544017035,-0.0008892531707882,-0.0008687033065347,-0.0008084698184536,-0.0008578464699834,-0.0009215052872467,-0.0007549688413744,-0.0001841927357986,0.0007210585663591,0.0016364966891997,0.0021350822825718,0.0019080488635412,0.0009348617493786,-0.0004827460816428,-0.0018356196871439,-0.0026126782057474,-0.0025052662418272,-0.0015315857385621,-3.6451671662140775e-05,0.00144115629599,0.0023874356012324,0.002516332245113,0.0018505592161582,0.0006629338348499,-0.0006457627950485,-0.0016586004204129,-0.0020476989301449,-0.0017011979000518,-0.0008215114181022,0.0001252877460348,0.0006583699620754,0.0006002401911938,0.0002235158552778,7.132490125097295e-05,0.0005342930572881,0.0014784667653911,0.0022273047281217,0.0019697294983105,0.000349809272691,-0.0021623469080056,-0.0043907721585254,-0.005031240556661,-0.0033825277582778,0.0001656558102477,0.0041773406877555,0.0067803787903902,0.006579359906977,0.0034194782829165,-0.0014208367174278,-0.0057693252169804,-0.0076083951742553,-0.0061016583789568,-0.0020310710817326,0.0026217907025823,0.005726571057519,0.0060854029233951,0.0039341349667718,0.000628523978137,-0.0022158373432816,-0.0035696811066056,-0.0033506091854547,-0.0021873701289232,-0.0008501769973305,0.0002286275656564,0.0010438322678696,0.0017348354944672,0.0022384791552478,0.0022187526954322,0.0013542039861678,-0.0002711989057725,-0.0020357771977237,-0.0030592236889055,-0.0027198952278712,-0.0010654480757245,0.0011470973577802,0.0028130212012216,0.0030530971837604,0.0017032350264596,-0.0005397425467093,-0.00242756140358,-0.0028234157349399,-0.0014161485226966,0.0009049555518776,0.002303891075541,0.0008880195313605,-0.0040890590423511,0.0033136010380472,0.0063496659536944,0.0003963952367767,-0.0037466888831174,-0.0052927491112146,-0.0075013866020618,-0.0066610104448982,0.0080270847780746,0.0153781480615595,0.0083151046883699,0.0043627613089106,-0.0070047101005084,-0.0158521828780112,-0.0135813137007432,-0.0091009329810974,0.0042241047553773,0.0200317028634672,0.0225231885414288,0.0083187231325907,-0.0104789925507714,-0.0173883726825248,-0.0152072166464383,-0.0040384571278945,0.0011472541537839,0.0069738051856875,0.0095385063947485,0.0098375245443134,0.0088188872697354,-0.0040146736075932,-0.0091659755237665,-0.0075009959607418,-0.0113608767609991,-0.0008805579951167,0.0043238673392157,0.0047136961251188,0.013186942729036,0.0048400903413157,0.0011710491704366,-0.0066532403845724,-0.0128090836086765,-0.00431325347774,0.0027001016257227,0.0050040826419495,0.0013587342826924,0.0026485240522876,-0.005128952302002,-0.0021606978907272,0.0117071061392297,0.0137810888037121,-0.0045196595929336,-0.0193125816020358,-0.0050035937973186,-0.0105131892310403,-0.013463267406236,0.0205786091839241,0.0316409323047989,0.020511274641629,-0.0082680725689573,-0.0179235868708622,-0.0294816682060754,-0.0196687685402304,-0.0010372076169546,0.0047054402423545,0.0379553989337904,0.0312088018802394,0.0032952937151013,0.004538590063724,-0.0257051224338488,-0.0614157048148632,-0.027642817831925,0.0160004381047944,0.0519723170551658,0.0485860747875514,0.0142405435332985,-0.0341295970999209,-0.0293499703058539,-0.0156819192410359,-0.0069284049076555,0.0046841839369202,-0.0022371436287455,0.0109420516288163,0.0127141622079774,0.0151609963482516,0.016439665439204,0.0228350388136343,-0.0201112433684489,-0.0658990333502631,-0.070964978731082,0.0385593707240005,0.0716555865662034,0.0434565924577753,0.0131699622307035,-0.0193030970788655,-0.0305130740967148,-0.0619749775819357,-0.055909874383736,0.0500957798109892,0.0912947093826324,0.0395955650296796,-0.0142370947766673,-0.03172984133717,-0.0806751065622532,-0.0536821869491315,0.0468783366929635,0.0518446408119552,0.0506126659052232,0.0420478626667778,-0.0192945359497332,-0.0720693861954472,-0.043269211293943,-0.0443541564318598,0.0042937050786574,0.0732052791690065,0.0563374443932192,0.054045297867988,0.0043276230123569,-0.0738784407555252,-0.1238869130114336,-0.0311256754844802,0.0564890721321783,0.1015718928779496,0.065183018515882,-0.0308925222817609,-0.0325556684021175,-0.0217865809927171,-0.075608449105282,-0.0850727964410097,0.0866652395129686,0.1385422564851074,0.070926237845957,-0.0497630748822603,-0.1341053426867554,-0.0614317253977862,0.0116467229685782,0.0343779140350026,0.0784006467829197,0.0413179622984087,-0.0021997599138189,-0.0262839636428251,-0.0457194374324704,-0.050567908783144,-0.0056874237168752,0.0522630188089839,0.0460813262774953,-0.0022428375336485,-0.0619955248134982,-0.0386540151182076,0.0830534053954399,0.0725196881193682,-0.0189837461050838,-0.0354160123022491,-0.0913717400631393,-0.0873622704401613,0.0668861104473752,0.1037336021692605,0.057100890389529,-0.0074440670530969,-0.0349363511322041,-0.0343110917382967,-0.0358372521324211,-0.0167002401350179,-0.0130054517093652,0.0411911217634537,0.0407435191452819,0.006025152995963,-0.0161244078380247,-0.0034223339033253,0.0049655175681548,-0.020498190706261,-0.0072561711129354,0.0173820701384918,-0.0062561543307603,0.003200585113673,-0.0041009006256845,-0.0153615925775255,-0.0005582144935345,0.0227489172909558,0.0177828640561036,-0.0012420026432955,-0.0179989804350558,-0.013162823762263,0.0155722489734385,0.011763122158685,-0.0100542646210705,-0.0270251572413051,-0.0137387277816423,0.0120230912290327,0.0213227033668462,0.0105783852871584,0.0203623972062646,0.0177017586604018,-0.0105615706561411,-0.0478415873843762,-0.0483843069666475,0.0056006060392135,0.0322706893554563,0.0337743133111323,0.0238131693667423,0.0033822190948294,-0.0149284958729068,-0.0315443291254284,-0.0116275753166874,-0.0056336573121883,-0.0001576812292905,0.0179691422337016,0.0198480270808288,0.0077053880972112,-0.0057742941059677,-0.0109671076282189,-0.01083161479061,-0.007630717266658,-0.0042751305753774,0.0101213258873388,0.0154311600624873,0.009351387072016,0.0009330468665825,-0.0078163683060811,-0.0145673319591902,-0.0147289178939069,-0.0014349756310148,0.0092847904757658,0.0142788022537603,0.012416771531216,0.005142211685783,-0.0040721184440721,-0.0111720981836639,-0.0132064352878784,-0.0094938706253532,-0.0018004725865522,0.0064982692407084,0.0118875731740336,0.012191628711367,0.0074381172019152,-0.000244344858278,-0.0076125434348084,-0.0117062351332465,-0.0110370785061042,-0.0060890394794877,0.0010173760518398,0.0074777698910751,0.0109193159623446,0.0102284329267399,0.0058389691554185,-0.0005340792207575,-0.0065667085391121,-0.0101593758658145,-0.0101408324306842,-0.0065997527869665,-0.0007700360825516,0.0054096844710186,0.0098685396625724,0.0109872009672753,0.0081412052697924,0.0020797658297151,-0.0051095364638032,-0.0106422513624568,-0.0121582146463223,-0.0088326850466012,-0.0018833382992695,0.0058581808981992,0.0111622247545323,0.0118390526074905,0.0077096123341188,0.0006522968204876,-0.0062787940404484,-0.0102327514651329,-0.0097904051629167,-0.0054885995333748,0.0005592198961546,0.0057087488130314,0.0079673204374566,0.0067740486397767,0.0030797553953338,-0.0012340194583349,-0.0042832302067864,-0.0050192558719726,-0.0035951892182131,-0.0011095633829779,0.0010963527125404,0.0021642027948333,0.0020506279484341,0.0013207671100429,0.0006109913911974,0.000169188225877,-0.0001990694116892,-0.0007680387375095,-0.0014510959832779,-0.0017183213645181,-0.001019569260893,0.0006148871588133,0.0023520776293181,0.0029997513124578,0.0018494835749361,-0.0007072069181274,-0.0032838174741925,-0.0043042656899869,-0.0029888810142055,0.0001223507085233,0.0034386180776747,0.0052017690603055,0.0044477224394757,0.0015031221197602,-0.0022151215316857,-0.0049337930443072,-0.00538654067536,-0.0033981606077113,5.523967343953251e-05,0.0033245584398525,0.0048906267465665,0.0041208011360345,0.0015943400369144,-0.0012158939668354,-0.0027878962697885,-0.0024645338140286,-0.0008745713552034,0.0004252956887451,-0.0001321675429551,-0.0032083018115054,-0.0081002033532128,0.0041511942939547,0.0111737505439994,0.0089248713569854,0.0037359480304109,-0.0059576990162972,-0.0092089263806533,-0.0080515209448371,-0.005954995616581,-0.0018367674971388,0.0038510816943372,0.009051809268177,0.0111779649832461,0.0086417451755714,0.0019326956486633,-0.0063633271158439,-0.0126263426802369,-0.0138387040099435,-0.0090391385870504,7.599438838696785e-05,0.0097237722105437,0.0156114124330257,0.0148854746908511,0.0075656818025676,-0.0032876149983211,-0.0128697700246399,-0.0168491402897713,-0.0134356557777426,-0.0042476698324968,0.0064826911923542,0.0139645175795623,0.0151084237815822,0.0098545341225429,0.0009618932754135,-0.0075112145376168,-0.0121512344768946,-0.0115623773302222,-0.006621947816588,0.0002615506311767,0.0063223713991179,0.0094663133297226,0.0088560441895984,0.0050270898373135,-0.0003895357360844,-0.0052627687897061,-0.0077488576174204,-0.0070137121583604,-0.0035651159537785,0.0009971681511754,0.0047155103460357,0.00614086133825,0.00492191972444,0.0018633975325615,-0.0015343094052168,-0.0038058283817765,-0.0041673909966245,-0.0027833833408293,-0.0005570928457131,0.0014014516884018,0.0023236796129231,,,,
0.0030177263695369,0.0028841964757631,0.0017114298985372,-0.000121443375802,-0.0019866275106947,-0.0032127924232299,-0.0033091648619021,-0.0021544840680978,-9.11953904548206e-05,0.002141127981023,0.003656350934822,0.0037829765041588,0.0023777227893682,-6.823762653878388e-05,-0.0025976521162965,-0.0041674105221443,-0.0040833074706219,-0.0023094301721022,0.0004833998608955,0.0031689664543916,0.004627267091875,0.0042199645217993,0.00206639575239,-0.0009995621775693,-0.0037622348959701,-0.0050978208634296,-0.0044052268245882,-0.0018516536920513,0.0016412890992235,0.0046851050103067,0.0059343920828262,0.0046734152325522,0.0012368240056652,-0.0029920639053207,-0.0061154777028781,-0.006609485743467,-0.0041224257150371,0.0002813754336612,0.0046049702838688,0.0068831820754911,0.0061218536899235,0.0027430612632412,-0.0016628889650105,-0.005133020008236,-0.0062640884394397,-0.004809686870561,-0.0016606092994367,0.0017206730272566,0.004041843817874,0.0046831687712649,0.0037653043712847,0.001881966875475,-0.0002549573583964,-0.0020643185805949,-0.0031888955300873,-0.0034845786457257,-0.0029732565845818,-0.0017948346567109,-0.0001669366416896,0.00163864572185,0.0032882655386214,0.0043616319250301,0.0043813320492747,0.0029790438131322,0.0001813691089503,-0.0033554496579604,-0.0063893512667104,-0.0075142691553366,-0.005821815562772,-0.0014812654215489,0.0040996522946782,0.00870736322036,0.0102399978363567,0.0077162092125902,0.0018595920643313,-0.0050933146763919,-0.0103187581750793,-0.0116303857052851,-0.0084195850201739,-0.0018957830078751,0.0054321046681048,0.01075840280699,0.0120391485357147,0.0087265714613372,0.0019663891590838,-0.0057749989103147,-0.0115428061267257,-0.0129612564410233,-0.0043706640686829,0.0028293055379929,0.0046699692824205,0.0058187659712327,0.0022099813027752,-0.0044803738859314,0.0113964386286073,0.0126426934080072,0.0031893616018683,-0.0091644574153763,-0.0232882461670273,-0.0242199564789486,0.004995667044053,0.0195127878455233,0.0157566232164419,0.0118501213470346,-0.0012254362068886,-0.0090413605175458,-0.0018056523798761,-0.0061480589092363,-0.0083710909158833,-0.0031467169087481,0.0028296554936418,-0.0014803468952489,0.0096559908544849,0.0047590000368743,0.0027655317191677,-0.0027966903301887,0.0034227303564729,-0.0095278092132902,0.0003252846967989,0.0044790784417521,-0.004048365691431,-0.0026700518383534,0.0007370357364243,-0.001716762645654,-0.0068920274823383,-0.0081243546563676,0.0184621974491942,0.0245392596512192,0.0145872809322439,-0.0138518036886013,-0.0257521715369984,-0.0214452338285281,-0.0205671195762698,-0.0083382211215159,0.0403568295484468,0.0473130462431214,0.0235984175160333,-0.0215187955936675,-0.0218892865587127,-0.024106662994487,-0.0352416929039026,-0.0128738904698878,0.0137444825578012,0.0328741954942459,0.0525760257440832,0.0249658990930684,-0.0113789174751342,-0.0250690248071538,-0.0883080769562159,-0.0422461124919154,0.0623674751425116,0.0616113293428335,0.0196933649841843,-0.0173277966009586,-0.0321416303391774,-0.0030057472975865,0.0127881301141854,0.0111845584650855,-0.003275572426682,-0.016621017026166,-0.0292664245842628,-0.0200922818427509,0.0337472615548317,0.0435728979057306,0.0227842235807816,-0.0008688974450633,-0.0232051355025327,-0.0413834218901343,-0.0252887713433181,0.0020240601272385,0.033156617188039,0.0230652757518256,0.0084141201740997,-0.0085973165920016,-0.014471518299686,-0.0135036157131223,0.0242639646247502,0.0061167365068826,-0.0102605786615163,-0.0249795638852746,-0.0107410123243068,0.0181430109742858,0.0250856067834423,0.0101490402035742,-0.0278837900667932,-0.0014496680187957,-0.0031566875329087,0.0102421128692038,0.017803108593646,-0.0055299953914621,-0.0118547839050393,-0.0254322576509665,-0.0122684804182145,0.0285401361686291,0.0282834270627079,-0.0099132312681333,-0.003245974746748,0.0001823897967105,-0.0078500942777124,0.0059967540012909,-0.0174286524036106,-0.0090153297838197,0.0212636704545292,0.0132472885813694,-0.016109298997758,-0.0304404969582468,0.0081334245257819,0.0415967082010757,0.0301015470246429,0.0141076436328714,-0.0457395294055277,-0.085424655135077,-0.0055669573343759,0.0410866575339987,0.0362011029692692,0.0502964007809842,0.0110293485533899,-0.0298168050574371,-0.0343923775846374,-0.0170633512380381,-0.0390638381351422,-0.0088957632468909,0.0443196413378938,0.0540068205854726,0.0271522729662271,-0.0037337900778352,-0.0308537117549078,-0.0443009273654439,-0.0496465015750464,0.0074235734196522,0.053122709981494,0.0403159442431107,-0.0028761141342561,-0.0083347490190112,0.0028017682712012,-0.0131756034894869,-0.0168257272835253,-0.0145050438072889,-0.0222973071451507,0.0088428172086671,0.0207998959416437,0.0404804617202203,0.0124713574218933,0.0013326186700438,-0.0152023330125943,-0.0200332308503117,-0.0585834117591343,-0.0061237116283218,0.0375440263241858,0.0216020715491167,0.017884347454241,0.022111313340022,-0.0025682183358585,-0.0195174473064651,-0.0149496796792613,-0.0355686741392082,-0.026413511108642,0.0255726636123839,0.0508641789902465,0.021058470477378,-0.0254002870196651,-0.0060638350088796,0.0113363612614389,-0.0096851113656864,-0.0336266078086405,-0.0202412709349676,0.031157346928145,0.0349671448186851,0.003059112515222,-0.0171184443832321,-0.0117232934130866,-0.0024551978963515,0.0098206628480428,0.0076598559686034,-0.0081830513700412,-0.0254257163194344,-0.0111514264001867,0.0425661595202177,0.0342645890627308,-0.0126805682498829,-0.0439061505541733,-0.0194734856004316,0.0251938898687213,0.0126467185982937,-0.0002095206248392,-0.0145677493840154,0.0163771377837599,0.017489838402815,-0.0053770085744514,-0.031155921570024,-0.0201455927599766,0.026599689071692,0.0236160440666563,-0.0094714855040796,-0.0133334403089592,0.0035838498918307,0.0034425651412415,0.0068223446500491,-0.0058519392657478,-0.0103108649276491,0.008051771671037,0.0083401090381402,-0.0074334078571536,-0.0101341627169357,-0.0052128815487242,0.0080689324804025,0.0122556414910075,0.0086637998892265,0.0095711905352979,-0.0124520134405787,-0.0368368143863755,-0.0037576898612434,0.0248830545206688,0.0171979926230336,0.0007382411164508,-0.0097447583915294,-0.007428814977809,-0.0022266115220172,-0.0067417255250438,0.0147665462559631,0.0095876126137862,-0.0053205321840226,-0.0038921999904801,0.0043167674786192,-0.0058146174485766,-0.0291139752059663,-0.0047646305928992,0.0257909225177708,0.0312812446916022,0.0062673989479854,-0.0068083221258976,-0.0077209424018728,-0.017261240519063,-0.0263661362516475,-0.0250015039729029,0.01398727417246,0.0416672295099618,0.0304636200374913,0.0104109412125023,-0.0085667680776895,-0.0189351530130718,-0.0283719733916299,-0.025025228747027,-0.0009029725440785,0.0110149583467491,0.0181562504950288,0.0199406896672507,0.0172056729563326,0.0026076923430992,-0.0067343932895285,-0.0134854139762527,-0.0196473139607257,-0.0165910707868439,-0.0066400907471949,0.0074849856504498,0.0141941664846044,0.0158381598988174,0.0161332957912901,0.0083402195446458,-0.0049169190527197,-0.016886189858025,-0.0176291888111755,-0.0105881814915491,-0.0024702686422156,0.0047312984840622,0.009410402317634,0.0107670914632934,0.0089290093037024,0.0047859470779464,-0.0003385207218579,-0.0050411125789498,-0.00813027569076,-0.0088349351010056,-0.0069525716701831,-0.0029413190041897,0.0020985408002558,0.0066376694676968,0.0091482852620893,0.0086455881259901,0.0051258265078519,-0.0003181373191264,-0.0058092946165655,-0.0093468430959131,-0.0095651996610854,-0.0062840811677591,-0.0006277650346105,0.0053388853752972,0.0093466559428582,0.0097965941332281,0.0064530118823484,0.0006283024284392,-0.0053087530050452,-0.0089461577452596,-0.0088933726555134,-0.0053614711118754,1.3898530037236574e-05,0.0049653591021745,0.007578591282194,0.0070321433974874,0.003832251585885,-0.0004983162852466,-0.0041249461582605,-0.0056943037478468,-0.0048591401967532,-0.0023042158118865,0.0006898453603871,0.002875293606268,0.0035461810959645,0.0027407497800568,0.0011083957505605,-0.0004707472207506,-0.0013345893956707,-0.0013332190811123,-0.0008180073351624,-0.0003518907461334,-0.0003243937505483,-0.0006940222805226,-0.0010062791782384,-0.0006958994254509,0.0004792224987478,0.002138155525521,0.0033507282128609,0.0031266646890465,0.0010819221629129,-0.0021359877382062,-0.0050047368139547,-0.0058736267267317,-0.0039171304621435,0.0002678101593423,0.0048222915640062,0.0075237510438707,0.0069547845240918,0.003272292784174,-0.0018903038421306,-0.0063384429554217,-0.0085025743967078,-0.0082002193706299,-0.006542159006554,-0.0001544014151504,0.0173132334808084,0.0164580210733873,0.007412576741448,-0.0045262270456685,-0.0111612288692159,-0.0113749123283598,-0.0090993483872413,-0.0042227755314396,0.0021376733254712,0.0079294067067925,0.0110043861174986,0.0100849300519876,0.0053771181398181,-0.0014559264686617,-0.0079191857336753,-0.0116085665648666,-0.0110728976260803,-0.006350588500283,0.0009689719169801,0.0082166663431815,0.0125728054633046,0.0121801931487434,0.0069957760257057,-0.0010556274502258,-0.0087966346284522,-0.0131228767923568,-0.0123321301940983,-0.006824786739929,0.0011305832293692,0.0084081143829338,0.0123173132169561,0.0116125688791158,0.0068348998928759,-7.376946512176828e-05,-0.0066262355558533,-0.0106985730926485,-0.0111414566276919,-0.0079693447504804,-0.0022205445346171,0.004351465653263,0.0096811552440575,0.0119114999151785,0.0100152514062112,0.0043296726806935,-0.0033123565120216,-0.0100856478542308,-0.013233923804577,-0.0112694906896706,-0.0047420217846501,0.0038436986766028,0.0109997308273635,0.0137262458702206,0.01083033240917,0.0034883268012425,-0.0052166771870533,-0.0115975114357123,-0.0129554893665737,-0.0087737184620099,-0.0009663174185527,0.0069641035108275,0.0115062474776545,0.0107385904374342,0.0052002088136777,-0.0023839967041784,-0.008411290063089,-0.0101307040836884,-0.0069503417883141,-0.0006648936611082,0.0055044911567208,0.008547537164819,0.0071380846811293,0.0022220238744363,-0.0035383721901648,-0.007163771184702,-0.006889313735381,-0.0030384423601385,0.0022201821315358,,,,
-0.0056511704851936,-0.0054036093281586,-0.00299247656202,0.0004053088200791,0.0033169511383706,0.0046207320500424,0.0039853018814962,0.0019295070413797,-0.0005032657227217,-0.0022879455692136,-0.0028921253849885,-0.0024253996216612,-0.0014110837109346,-0.0003806735691912,0.0004100664993836,0.0009806881354205,0.0014209059466946,0.001700791033201,0.0016591588413389,0.0011572960359688,0.0002477271904642,-0.0007948063916388,-0.0016156988592286,-0.0019868609941727,-0.0019067563147255,-0.0015077235858284,-0.0008600993673271,0.0001199393329116,0.0015186548793677,0.0031172231638484,0.0042235286574843,0.003912267790532,0.0016409523647994,-0.002150113557126,-0.0059462204402361,-0.0077812071771519,-0.0062990452092203,-0.0016460275748833,0.0043703578054701,0.0090281626517881,0.0100042506704947,0.0065754595853049,6.455097455999642e-05,-0.0067168635953105,-0.0107551937178046,-0.0102216374440638,-0.0053043006853864,0.0018809585330641,0.0082334004660937,0.0110279584252169,0.009099724338144,0.0033451014668968,-0.0036823926161387,-0.0089161125382604,-0.0101524018600399,-0.0070213353811146,-0.0010930894196116,0.0049163725191975,0.008430308252141,0.0081522573220361,0.004536480830473,-0.0005759366023296,-0.0049051730659486,-0.0067659401953898,-0.0057121285864467,-0.0025618436467427,0.001127027791156,0.0038357782897688,0.0047297503468903,0.0038412932496694,0.0016993940110335,-0.0013286546664665,-0.0054385984661754,-0.00617488596317,0.0039204729746891,0.0066536530257962,0.0040567680279972,-0.00171334336875,-0.0071046284328916,-0.0103567252344952,-0.0062865071038813,0.0046323514597507,0.0119001244642285,0.013362124287666,0.0086329153430399,0.0018994516309308,-0.0086849837640835,-0.019837198792948,-0.0195447503443499,-0.0076240941207663,0.0096021020783321,0.0194701768886514,0.0215184289622129,0.0115423364870303,-0.0057574487266538,-0.0107583741793994,-0.0127027282564661,-0.0138670969411978,-0.0049581563600113,-0.0008141699675935,0.004226428298935,0.0028892758665032,0.0177217045546117,0.0208669570986221,0.007010172431309,-0.0102048009290876,-0.0328342252273521,-0.015998648626022,0.0050506960746456,0.0121103600897619,-0.0024741541739665,0.0201633847236077,0.0109095106752802,-0.0076548251311044,-0.0137836268280913,-0.0040707507540904,0.0002497589286653,0.0009266681083924,0.0017808186352598,0.0011614216884202,0.0101679188171398,0.00042333464247,-0.0012234338222128,-0.0099268815884796,-0.0172195070001669,-0.0006718781814794,0.0080966875098838,0.0114246668005485,0.0185691734635998,0.0121041133966279,0.0035867401499717,-0.0201930754229554,-0.0334062335996471,-0.0333682515655364,0.0090841989793517,0.0316411775570922,0.0277236826868745,0.0132571292483675,0.0149977868933286,-0.0116022552274005,-0.0241374712876,-0.0245787040548598,-0.0132807964934369,-0.0035400251788399,0.0034152181906331,0.00042753479721,0.0394790204462257,0.0488946287012527,0.0089508222816643,-0.0436881106051163,-0.0536071514931515,-0.0111430607559372,0.0038235876516969,0.0147193177087522,0.0225490629120759,0.0210680110718976,0.0005764594416515,-0.0117594622188818,-0.0064628015769791,0.0036970187767635,0.0063737098184333,-0.0112583954306161,-0.0308414279464132,-0.0033496745857679,0.0014263225808703,0.0280653598825703,0.0328964481784617,0.0217200686244098,-0.0116379912510654,-0.0545043471111048,-0.0534436793043298,0.0393949763697418,0.0518828356451491,-0.0145107408067724,-0.0073076634510423,-0.0038815336263242,-0.0010801344256269,0.0102052569423845,-0.0074999054985738,0.007274877813958,0.0086418906490668,-0.0190950089111137,-0.0311924998874052,0.0193210915491863,0.0308546638049764,-0.0009871669440988,-0.0107793504008841,-0.0130665245780289,-0.0068758405052495,0.016618762359267,0.0199706302126964,0.0092885336996296,-0.0319978355856655,-0.0202401136738164,-0.0094555280051459,0.0213474391521892,0.0107128906334922,0.0131832245722797,0.0082067489529661,-0.0086911024820763,-0.0184789418241483,-0.0005797982818753,0.0152135305688285,-0.0148192977513359,0.0050672195700734,-0.0223147337112281,0.0107152857199165,0.0019025520987311,-0.0045864338929878,0.0265296510033214,0.0492096248769816,0.0109804994515744,-0.0549385677973939,-0.1131225464797047,-0.010494025150711,0.086110661712772,0.0678112333397782,0.0170383963995718,-0.0157622776375535,-0.0498984176584252,-0.0233174253906681,0.021930705081892,0.0004674425112559,-0.0425243339493144,0.0118899344817026,0.0423308814031136,0.0442664037658685,-0.0291890774950955,-0.059954932656099,0.0294962629403348,0.0116101738695592,0.0038649234678802,0.0089329542270196,0.0047021854086053,-0.0366086221292761,-0.0476961791706915,0.005461211108618,0.0460327420859416,0.0517684288691317,0.0326159894953903,0.0077843460982283,-0.0500522349384737,-0.1043044910999387,-0.0557579650910295,0.0422789622477665,0.0904525884000376,0.068882935560906,0.0346255683443615,-0.0275693005554681,-0.0717826804202723,-0.0822940360146519,-0.031514179452612,0.0350965885187017,0.0747939910586599,0.0462348192396148,0.0163894352487099,-0.023026528661333,-0.0364750917521467,-0.0329262771643477,-0.0118398741334475,0.0131758193413031,0.0205114171304575,-0.0219883475868749,0.0064686683241047,0.0376588458824055,0.0249507959273221,-0.0089294764889266,-0.0021076834320655,-0.035317284559472,-0.0761409883421774,0.0144283073209966,0.0588343441344005,0.0474634006852376,0.0006694129126699,-0.0344737079694274,-0.0123102774619164,-0.004164699170274,0.0109030912726729,0.0055197933857522,-0.0250879550377904,-0.0271418774754687,0.0204861266844088,0.0407068079716736,0.0318702592758837,-0.0036729133179197,-0.0444152463337171,-0.0503895171570836,-0.0076218522568969,0.0456128374410321,0.044322404776536,0.0081123098781389,-0.026060813718178,-0.0203064336703732,-0.0137787540384774,-0.0019342788696306,-0.0020880637674905,0.0260912892679979,0.0085467867171949,0.0005868405643068,0.0011520923601161,-0.0051774371760353,-0.0070919658512055,-0.0087372784945392,-0.0108133927933188,0.0074169881309164,0.0046725509161794,-0.0041085483272564,0.0091946691428888,0.0158133285513907,0.0149392600251811,-0.0025854324763652,-0.0251200588937511,-0.03211809677022,-0.002421711329141,0.0128357810284887,0.0140500128335425,0.0088260860386971,0.0152388696200882,0.0085535994194986,-0.0035311881475629,-0.011750586668506,-0.018527182848914,-0.0183919707928941,-0.0101990191818425,0.0065457745018602,0.0213856794669845,0.0231084505301666,0.0173773217818074,0.0015026019476946,-0.0160080191229129,-0.0197278284919346,-0.0168912756979709,-0.0096198823590925,0.0002766876760981,0.0096098055255114,0.0152212260600351,0.0152946249134569,0.0100470786422933,0.0015945558472294,-0.006908643115033,-0.0124987704685017,-0.0134902964587343,-0.0099706834607896,-0.0035450198334399,0.0034510672218297,0.0088400003638925,0.0112277902385275,0.0102332260870217,0.0063889078929535,0.0008628672368958,-0.0048634166841658,-0.0092873389924172,-0.0111541592651149,-0.0097461056448485,-0.0051779089774943,0.0014291995863364,0.0080812445723404,0.0124556043153949,0.0127481323374029,0.0084923993050743,0.0009351090741434,-0.0072975091241731,-0.0131703887830545,-0.0144419784740851,-0.0105634080634496,-0.002885878867045,0.0058806494710952,0.0126835073584797,0.0151856691633752,0.0124996971265246,0.0054274292980684,-0.0037827817070354,-0.0120638007361241,-0.016429422806643,-0.0149947465618333,-0.0078382346363919,0.00271224285028,0.0127163950199781,0.0181214682089904,0.016524199358679,0.0083317532252887,-0.003291138101724,-0.0136958640671942,-0.0186715156773181,-0.0161843944142303,-0.0072276037135898,0.0045513196424629,0.0143132778165482,0.018030683880726,0.0142232866982858,0.0046480778816566,-0.0064472208151815,-0.014242371363228,-0.0155508374071598,-0.0102257088794018,-0.0010706399343352,0.0076430945703334,0.01223277671648,0.0111915762840848,0.0056139053800128,-0.0015894904135397,-0.0071723660486685,-0.008984134850562,-0.0067446487795332,-0.0019310218886406,0.0030534034980727,0.0059996441128047,0.0058218873037565,0.0029371329855728,-0.001025580750409,-0.0040386216160986,-0.0046509963212881,-0.0026850486394353,0.0006857608545563,0.0035476419065782,0.0042691901545992,0.0024119224023318,-0.0009825695630656,-0.0039344340952931,-0.0046431863172255,-0.0025674937050923,0.0011794223205046,0.0044111062088802,0.0051487791443001,0.002860077714634,-0.0011415732058809,-0.0044655789922853,-0.0051408272793032,-0.0028578151934947,0.0008866682386218,0.0038183850244084,0.0043480078854075,0.0024757638777417,-0.0003953638380921,-0.0024987268075918,-0.0028322373974384,-0.0016469460092381,-6.277089104441589e-05,0.0008292175992281,0.0007121636861278,0.0001340726712498,-5.5895331904456175e-05,0.0005475773437133,0.0015514457188976,0.0020455456999486,0.0012888174150701,-0.0006950541046189,-0.0030097324905594,-0.0043326701665584,-0.0036603701567997,-0.0009416770511774,0.0027589874903467,0.0056950941841879,0.0062816957948501,0.0039311888966208,-0.0005498596171425,-0.0052257585362885,-0.0078731855345471,-0.0070427457996013,-0.0028485495909438,0.0029386805417126,0.00763028044545,0.0089053747230535,0.0060167171505894,0.0002541536493871,-0.005640801417251,-0.0088382068062287,-0.0078410106702231,-0.0032116290640046,0.0027542380789284,0.0071973914244936,0.0080880929356487,0.0051598754287047,-3.16490542272253e-05,-0.0049155421873695,-0.0071777076174408,-0.0058834753361293,-0.0018869827330774,0.0026902569106901,0.005614464195257,0.0056610964809424,0.0030953573517692,-0.0006500342597278,-0.0037905337735763,-0.0050131670130867,-0.0039553166404589,-0.0012324492667585,0.0019041010615444,0.0041081070520788,0.0044780387116569,0.0029042868398901,9.446465596844176e-05,-0.002733743402569,-0.0043683799651471,-0.0041167780598298,-0.002101463980877,0.0007953978578273,0.0033235643949964,0.0044165646415474,0.0036460853025097,0.0013762831186047,-0.0014240772966621,-0.0035948872900017,-0.0042422328241065,-0.0030875217078111,-0.0006038393497108,0.0021310251773381,0.0038670217906357,0.003762458305108,0.0018397825293583,-0.000956447042024,-0.0031889853699058,-0.0036620231594206,-0.0020816635707981,0.0007295750817719,0.0032168948785768,0.0039064826193433,,,
0.0009008927021467,0.0012163035287682,0.001299806266167,0.0012448210628849,0.0009667132504303,0.0003311895721769,-0.000622212105879,-0.0015933636120159,-0.0021598389928635,-0.0020188388421633,-0.0011454561172625,0.0002093535893119,0.0016227207793344,0.0026261621398598,0.0028380160600943,0.0021068116748188,0.0006107064461644,-0.0011789822810596,-0.0026839281943296,-0.0034407949090483,-0.003220701936684,-0.0020232309484558,-4.461538501279161e-05,0.0022931194584042,0.0043020093164508,0.0051329399527726,0.0041158706390499,0.0012125101655584,-0.0027176490310065,-0.0060990749495328,-0.0072824645288446,-0.0053749803968446,-0.0008410134709185,0.0044881811314999,0.008126129657217,0.0081375167580442,0.0042571863472705,-0.0017668265100559,-0.006949133599041,-0.0086288985309093,-0.0059403362738053,-0.0003211385367736,0.0052499592337764,0.0078595245794326,0.0062149824122946,0.0012988937758214,-0.0042116351791461,-0.0074018733266998,-0.0066325898137387,-0.0023186346286341,0.0033596743339827,0.0075764067146995,0.0082166656999654,0.0048468413531315,-0.00109744202776,-0.0069549843773751,-0.0100224772116956,-0.008764208653128,-0.0035202068803311,0.0036028249878685,0.0096132287342616,0.0118994033608282,0.0093333229740937,0.0027671061433639,-0.0052583505109462,-0.0114874069852968,-0.0132659574749379,-0.0096971831703426,-0.0021170302476956,0.0064006635217023,0.012352536276723,0.013337077277582,0.0090785926264962,0.0014700849322923,-0.0063387215745851,-0.0113274557275805,-0.011808594937497,-0.0079549583084893,-0.0015350353823679,0.0049027024517919,0.0090040217135275,0.0094093067249489,0.0061834910283277,0.000781978076314,-0.0044619102767572,-0.0023846852300363,-0.0018351417942038,0.0006287343719376,-0.0039949199702176,-0.0114645833853336,-0.0213131475112841,0.0049940361143145,0.0375158376197501,0.0241415931279747,-0.0130448885881396,-0.0276091442448215,0.0090690797843309,0.0124887149637052,-0.0035162654271322,-0.0316567171579673,-0.0201166247112982,0.0191587334619594,0.0271104106281653,0.0108372483303133,0.0014541284972329,0.0058667203836975,-0.0082680010373632,-0.025522611814153,-0.0048111150568629,0.0062426943485545,-0.0150547647421382,0.0024828243341174,0.0201605430597964,0.0234122666537712,0.0105671491121748,-0.008104920401966,-0.0226904658589852,-0.021388239970226,-0.0122047402312486,-0.0028493124073356,0.0213735938511996,0.0284504947814406,0.0213413612345764,-0.0049771247946736,-0.0170970841133998,-0.0233135157240769,-0.0151978972294935,-0.0046056413173373,0.0026696985579787,0.0145243645755202,0.0167367933110944,0.0178425824682355,0.0108257888488881,-0.0032024384277472,-0.015022019178706,-0.0353549810309308,-0.0290149978750922,0.0028352056062872,0.0217996507177682,0.031535120275892,0.0386864150145384,0.0088594271256229,-0.0238732978372582,-0.0571280770529462,-0.0147473173105225,0.0087603688027985,0.0201242141927651,0.0180305987406248,0.013118222342276,-0.0122490791184167,-0.004549579133243,-0.0004874618327423,0.0057407597714676,-0.0038245590001102,-0.0117885322632108,0.0011814053382667,-0.0090687398390299,-0.0015196628714903,0.0137625344955544,0.0129410001155399,0.0171222663144712,0.0043195806112145,-0.0282474159386786,-0.0459792340749953,0.0087173147905428,0.0221033488068851,0.0308823618190499,0.0226883566222787,-0.0130824755353074,-0.0373631539798162,-0.0237042333301878,-0.0108973431688323,0.0234148913670557,0.0471241081463485,0.0332450242449657,-0.0180360067449219,-0.0696591606191491,-0.0162674322007101,-0.012903498833049,0.0525798845302682,0.0368541807414899,0.0067784572505021,-0.0224539884699746,-0.0020939781307697,-0.0232549805847853,-0.0312944731305516,-0.0004232849669792,0.0251599434510041,0.0306663355731068,0.0291213477214755,0.0023627044575412,-0.0569287778087218,-0.0326977489631015,0.0100136245966263,0.0138479220885922,0.0615424946028654,0.0197244546479446,-0.075474443470315,-0.0733652855619223,0.0382692654451983,0.0744090320077359,0.0486165334592336,-0.0055176715086542,-0.0618944001835177,-0.0823096050077927,-0.0050624580430581,0.0581321493036727,0.0548053265093062,0.0159573600719378,-0.0335221175434381,-0.0216368896578898,0.0127426288534484,-0.0046808068436622,-0.0162072438470931,-3.747098452700734e-05,3.807034760531138e-05,-0.0007395172314034,0.0292194273985242,0.0055409883500914,-0.0193726704367145,-0.0084740192720723,0.0006322304965088,0.0083301102092645,0.0035956395447561,0.0012944784896825,0.0140071163472575,-0.0051190203752104,-0.0385965662889557,-0.0257527703326855,0.0229143193184728,0.0371053907324956,0.0221005917569736,-0.0130174759584759,-0.0070910305877185,0.0057653049618241,-0.009557667556045,-0.0184377215970723,-0.0275205959159815,-0.0105404147368252,0.0287444321825688,0.0270949498609033,0.0197521391053188,0.0073716574670853,0.0160303139311068,-0.0330840354722514,-0.0715661535152499,0.0010496634846345,0.0374328983927493,0.0326616046412037,-0.0063121634342238,-0.0159202160811136,0.0104623073527741,0.0084369779461265,-0.0095075935379789,-0.0112353796538487,0.00292542737526,-0.0025917702040582,0.0138019019924522,0.0051538098585867,-0.0153178727395156,-0.0271860472530235,-0.0053464065662424,0.0257921452842338,0.0381629865708967,0.0196794038545782,-0.0146444132410751,-0.0415151620131544,-0.0313710289638021,-0.0074557552988345,0.0390477302984012,0.026212179594821,-0.0078421487029435,-0.0075180960860453,-0.0040910887072232,0.0035321124889094,0.0043739476523495,0.0023710657001565,-0.0077220483679067,-0.0082024602890142,-0.0023640053169601,-0.0209607790406976,0.0036539202075906,0.0295684231491137,0.0267392069421998,0.0105709277703406,-0.0154854077740758,-0.0432977775256321,-0.0308378755090597,0.025161060452858,0.0226390836017429,0.0078937066324911,0.0168101176978708,-0.0052959027959738,-0.0204503271011433,-0.0114108023304952,0.007813350680174,0.0066378710325976,-0.0067910086900556,-0.0053173247361514,0.0084029059801819,0.008908397634059,0.0013840666752153,-0.0005403832087325,0.0010609021026072,-0.0065618265727042,-0.0229971450030881,0.0002901087137941,0.0230607096992717,0.0132343367383306,-0.0070289908719311,-0.0094116648718406,-0.0023751243198191,0.000308204082605,0.0007106575322033,0.0039614360022771,0.0036446592842443,-0.0033311412140283,-0.0105144577131443,-0.001645371335316,0.008426241750532,0.0063331847507183,0.0011665684302701,-0.0035743807394888,-0.0020307110480934,0.0018082672114536,0.0019052704341163,-0.007608201663059,-0.0085996404829693,0.0032779259686206,0.0117898067909218,0.0089324725053626,-0.0013111238409382,-0.009914154007335,-0.012253939662767,-0.0014609352586636,0.0068153958737673,0.0123185433273479,0.0094125972682823,-0.0027490765072663,-0.0077915160060124,-0.0138397927897072,-0.0038800375277977,0.0012183296793694,0.0045815796670359,0.0039537583316707,0.004667032675924,0.0082364156047447,0.0060112579353293,-0.0005020763149765,-0.0078726534750486,-0.0123323891080761,-0.0114808809924018,-0.0053918750743278,0.003405250008338,0.0110852862506472,0.0142818361321233,0.0116001734064539,0.0041929357763083,-0.004820796132467,-0.0117661567687059,-0.0139745171813122,-0.010805882610064,-0.0037452041638454,0.0043633500515808,0.0105183832074816,0.0126640762069237,0.0103029278162374,0.0044964841771358,-0.0026290416282931,-0.008635408837887,-0.0115426171228551,-0.0104276259615973,-0.0057131921861531,0.0009456392550269,0.0071905455157491,0.0107807209440462,0.0104298753777828,0.0063163437857199,2.2063215422776072e-05,-0.0060940504497433,-0.0098133747786155,-0.0098689348997265,-0.006348269319909,-0.0006015552107245,0.0052513025467058,0.0090463901768522,0.0093412611641626,0.0059895394131104,0.000281680291221,-0.0054868549452883,-0.0089224644737086,-0.0085593696325433,-0.0045349464868633,0.0014238369898658,0.0067197074352077,0.0089979664435933,0.0071756963852857,0.001957967405401,-0.0043845498266649,-0.0089256260919461,-0.0093557072234631,-0.0051041836084685,0.0022063842278455,0.0092711225991957,0.0124796761236817,0.0096364795733085,0.0012450233186282,-0.0093473783588981,-0.0171948177318498,-0.0179693681731267,-0.0101809784115763,0.006144760078192,0.0319808512531615,0.0369549536524493,0.0221900762639442,-0.020571432424228,-0.0720350906499351,-0.0382545289877377,0.0254309753995284,0.0355890398526669,0.0267234553965176,0.0096390990945166,-0.0016538625227218,-0.0129406675663018,-0.0140825608471268,-0.0107472224531899,-0.0065502820039506,0.0002701104987159,0.0072145441315863,0.0097488461404722,0.004816287062,0.0029252604231848,0.0019874019646066,-0.0018185900504054,-0.0051747564380181,-0.0060623289293967,-0.0041740414846643,-0.0006487629385202,0.0026989911481934,0.0043274725355576,0.0036918946713702,0.0014271767196006,-0.0010800106883708,-0.0024874076701201,-0.0022148685546663,-0.0006825658702748,0.0010391776144398,0.0019135570066161,0.0015095690256363,0.0001399941863055,-0.0014267457001442,-0.0024099442601913,-0.0023410355303057,-0.0011791639022314,0.0007167897736198,0.002684270336979,0.003918250343001,0.0037270337015767,0.0018541874927896,-0.0012632319243421,-0.0044856591847902,-0.0063345212987309,-0.0056608169342449,-0.0023193631878726,0.002555242551621,0.0069209587571304,0.0087368002787986,0.0069573703674528,0.0020859744696539,-0.0040017282968781,-0.0088529370004717,-0.0104422210038955,-0.0079524130180631,-0.0020972900184403,0.0050513469685245,0.0107013190538869,0.0123585263058553,0.0089489959435826,0.0015261606595552,-0.0069429436549789,-0.0127963560763937,-0.0133744070787739,-0.0083159118398758,0.0002414794664648,0.0086483860742858,0.0133924336475262,0.0126064793058082,0.0067797641537605,-0.001568919991049,-0.0090328079049943,-0.0127295614174881,-0.0113851976554758,-0.0057031526374604,0.0020235419719856,0.0088196473873155,0.012110054073884,0.0106483761603712,0.0050068964853094,-0.0025817613735932,-0.0090567148029424,-0.0117712679282743,-0.0096351642457214,-0.003619557593038,0.003655069279968,0.0090930958930872,0.0105137771317953,0.0075839260525786,0.001851789739136,-0.0040859408423375,-0.0078153210519015,-0.0081154530823458,-0.0053131620995721,-0.0009172011054623,0.0031897594164375,0.0055650587599351,0.0056684332910402,,,,
0.004284588190459,0.0083642735801319,0.0093572122972033,0.0065877278570584,0.000919559376141,-0.0055182416524531,-0.0101354520630283,-0.0108998487684324,-0.0072082945571938,-0.0002782666142351,0.0071714896739457,0.0119548225793822,0.0118218918681624,0.0065960374396841,-0.0015835403278015,-0.0091456571570498,-0.0127349484133597,-0.0108093809531996,-0.004353673572973,0.0036616303087257,0.0097546499953507,0.0115292589096531,0.0085958491814153,0.0024810841272987,-0.0042375615318715,-0.0090258999536951,-0.0102424468821585,-0.0075578536301402,-0.0019820820923477,0.0044374919846806,0.0092422143290837,0.0104467689121163,0.0074021381717014,0.0011999050604304,-0.0056832483860158,-0.0104012357875648,-0.0109440704861976,-0.0069856108488412,-3.5985196414533924e-05,0.0071348614610332,0.0115828854864317,0.0113896525335755,0.0065028596016054,-0.0011664146023237,-0.0084901463408104,-0.0124338244829593,-0.0113619538589311,-0.00573845987582,0.0021057347173006,0.0090135390187851,0.0123367522449482,0.0109417134950522,0.0054835541093221,-0.0020523144187847,-0.0092100984517193,-0.0138908444964956,-0.009973776915745,-0.0022515526141096,0.0057143471704749,0.0072189542758183,0.0046139181523094,0.006411967686638,0.0051319576705324,0.0018820264960482,-0.0019017140045263,-0.0053779827051172,-0.0088167882654704,-0.008565107537474,-0.0109714135250642,0.0005274977347757,0.0147656846587745,0.0174083686189438,0.0112284944582265,0.0034890091033285,-0.0076209251646937,-0.0166735501828646,-0.0226650274898265,-0.006175038957021,0.0071052790231822,0.0136073277527963,0.0205991483897177,0.0113647014411151,-0.0007676527605519,-0.0162646545206475,-0.0122079174115884,-0.0061749216637254,-0.0071792801571608,-0.0075979182016902,0.0053666377767999,0.0281288404364566,0.0275894761168466,0.003694801185721,-0.017408267118775,-0.037651355098773,-0.0281135570452574,0.0050106002606184,0.0291925567696151,0.0323132217016917,0.010403957861486,-0.0194788847725899,-0.0139043969793621,-0.0131160793213635,0.0038500494157632,0.014457272235888,0.0075406158744955,-0.0039852210362104,-0.029724956654957,-0.0135301607723213,0.0220301649875488,0.0303256300411655,0.0103739844166917,-0.0044801244745417,-0.0026837571500003,-0.0106091641985195,-0.0266826622522432,-0.0362907113030112,-0.0010226787339755,0.0451268989906434,0.0472002772541402,0.0166826057056539,-0.0133472054665134,-0.0300670082352068,-0.0441826206165702,-0.0105315855662336,0.0099602990137143,0.0209810233581477,0.023589057693109,0.0146326895520278,0.0101255121430829,-0.0168609288774236,-0.0374028544755121,-0.0050058692534249,0.0087533664757472,0.0049376459655991,0.0137703388304668,0.0073843406416666,0.0002829464983223,-0.0081364097697622,-0.0146703944296359,0.0049432525687368,0.006254970000546,0.0008749756710557,0.0021318500283988,-0.0031416298242818,-0.0093368331827522,0.0102946756371239,0.0071684443238509,-0.000817365434278,-0.0098209805432535,-0.0091939430092111,-0.0064376604773243,0.021358957977898,0.0086844178812556,-0.0019881302904815,0.0006144217166513,-0.0015196979118738,-0.0357317682224684,-0.0073740944071279,0.0368267153797496,0.0256614983127988,-0.0081402236974861,-0.0287476582755501,0.0008509486169156,0.005452953373959,-0.0088490367885266,-0.0013537035574335,0.0199102687102257,0.0051356804371799,-0.0062729884325328,0.0035252769966557,-0.009511580062491,-0.0229892426428561,-0.0206834451783195,0.0402603275048697,0.0511548087952254,-0.0033754647714775,-0.0418696228587015,-0.0336970166756627,-0.0138255503882452,0.0106396210281856,0.0511462343216814,0.0382019245038223,-0.0261777631079796,-0.0658982221458244,0.0077580148466473,0.0451102978217466,0.0017193540987085,-0.0212030207825316,-0.0121073581915745,-0.0078337939497096,0.0143953779164843,0.0390848578524641,0.0029364184792894,-0.0328734145975491,-0.0260445401350745,-0.018068218736798,0.0281745757446014,0.056397107453286,0.0113934234951267,-0.0217808017396491,-0.0558834016734849,-0.0353527659882361,0.0004941715124217,0.0245568125468381,0.0681525936254108,0.0625305686726363,0.0067815677743443,-0.0624487610096545,-0.137959251938132,-0.0532711604566473,0.0959096411108394,0.1000780193302114,0.0424265052246267,-0.0210141411778546,-0.040401875392992,-0.0524727818137639,-0.0157620917439335,0.0242515714516805,0.0126171871217187,-0.0233965274969825,0.0373859977097241,0.0378210631721427,-0.0169946819436507,-0.0616580163148774,-0.0018989526773804,0.0432683566557595,0.0208425004621655,-0.004540704649968,-0.016256274257883,-0.0445711807922112,0.0032856420910354,0.0267188710286233,0.0116311623876737,-0.0007937363861631,0.0100520357867678,0.0107786885459087,-0.0139990479219619,-0.0019201301486701,-0.0049936811394967,-0.0503431198787287,-0.0165968486706772,0.048426361383441,0.0572540785385756,0.00321725262287,-0.0294924231712262,-0.0012139817447261,-0.0112834396328385,-0.0427260567627306,-0.0102972499230313,0.0386499456608395,0.0264916782559685,-0.0058354754942655,-0.0100219532083134,0.016022940108013,0.0147649022693172,-0.0203598504301191,-0.0428006507202776,-0.0048314200858615,0.0318298817897203,0.0247229162536721,-0.0269241689113065,0.0004297606767644,0.0309607551893416,-0.001718155359274,-0.0410393879934806,-0.0119906804999768,0.0183185081720529,0.025764826348604,0.0162446069425153,-0.0133225088330248,-0.0274641475352865,0.0020432637013579,-0.0105154980775749,-0.011046232112329,0.0013707735268041,0.0483028648118781,0.0350659111956804,-0.0027368528994055,-0.0419546262560563,-0.0548349714739589,-0.0012607189518705,0.019912946514293,0.0225039501868666,0.0057032039533748,0.0119722599830057,0.0220257243860205,0.0129326821011554,-0.0218480944248383,-0.0621133467253582,-0.0376010758646946,0.0247040506398992,0.0474595459206091,0.0448098154799893,0.0151981772814898,-0.0430888670592244,-0.0484527958513555,0.0091342725162964,0.0345659983894775,0.0055535226786823,-0.0317174708938387,-0.0219552205996952,0.0065265195514078,0.0419792106869171,0.0358176180300253,-0.0009551251366945,-0.0468346128510852,-0.0387717098104636,0.0116803604448356,0.0260080930215502,0.0037569019980589,-0.0147625613398564,0.009479498556923,0.0128130887321511,0.0220086342748095,-0.0084987003881029,-0.0320528845494408,-0.0156485263560118,-0.0103917762626842,0.0136672378364183,0.0295449690840678,0.0183969732073591,0.0015016445801013,-0.009254902135096,-0.0194405134353821,-0.030848519387085,-0.0069118641762889,0.0187378008394476,0.0269434106729398,0.0164919173395425,-0.0097461630263942,0.0020982272494627,0.0059143878864408,-0.0202735940235359,-0.0323412322239465,-0.0165145641545433,0.0220408849431657,0.0399898816750826,0.0129318688528383,-0.0121121032806451,-0.0131053315322324,-0.002234238402096,0.0090052428280329,-0.0020808104632214,-0.0205429533721661,-0.0170084797324094,0.0023158971982802,0.0196937264409812,0.0221623128530295,0.0110286220856006,0.0008981604692814,-0.0123236179172241,-0.0217673137043369,-0.0179604999307211,-0.001603212103929,0.0216352995785745,0.0127384683099775,-0.0035039009834274,0.0049732108043014,0.0126049801099996,-0.0037076280972186,-0.0282047621721637,-0.0133866486387055,-0.0051506386922609,0.0050678110032802,0.0306996111575484,0.0316878043453474,0.0105975454971985,-0.0193470156095276,-0.045151432922822,-0.0459138922810539,0.0083541507361212,0.03761927749832,0.0353407913520566,0.0173197521624674,0.0008736518647272,-0.0154674194081593,-0.0179805994777437,-0.011200315051879,-0.0337508448747698,-0.0268046724012811,0.0417506869926942,0.0648360429327977,0.0322507038649838,-0.0263881131020598,-0.0778564821874558,-0.0198779987027471,0.0367403859173923,0.0269027375479732,-0.0100401915604355,0.002456605063773,0.0095314315493122,-0.0005953062024262,-0.0096228785012868,-0.0107032980570738,-0.008239972937922,0.0025599557908317,0.009538872515947,0.0093743351654956,0.0033613160782738,0.0017603074997203,-0.0022056234566724,-0.006695634999121,-0.008583105776318,-0.0032761788155476,0.0017440482649735,0.0040897264853702,0.0043170172678117,0.0032291417222387,0.0016065681918884,8.370093765817833e-06,-0.0012699637506535,-0.0021083194774733,-0.0024470586409007,-0.0022373187969216,-0.0014741715722365,-0.0002648815748365,0.0011289692649095,0.002314887957315,0.0028719267505602,0.0025140318664556,0.0012489002825276,-0.0005639786718411,-0.0023156380417531,-0.003372843859924,-0.003314254368186,-0.0020794602737062,-1.7090318071054217e-06,0.0022641507723948,0.0039138071237598,0.0042567495669091,0.0030067062009247,0.00047329373796,-0.0024659824443665,-0.0046482225121314,-0.0050844300326222,-0.0034329222351838,-0.0002860297443569,0.0029052340338015,0.0043308911098991,0.0026293356129638,0.002581038129518,0.0031157596393271,0.0043904139878323,-0.0012787748344395,-0.010079768712812,-0.0103785122168011,-0.0059862911792711,0.0013129112736878,0.0071096062002246,0.0098838970147158,0.0089386844592738,0.0047076569147459,-0.0012732409859889,-0.0068185440599554,-0.0098494060624448,-0.0091765518221266,-0.0049967336072085,0.0011250298987266,0.0068306622664207,0.0099041185763104,0.0091734823510094,0.0049717292978575,-0.0010448375889838,-0.0066077424109053,-0.0097314240857844,-0.0094087807587001,-0.0058626719495918,0.0045273698600678,0.005132509370342,0.0086568423828278,0.0088237599503613,0.0053183048463629,-0.0011458646453548,-0.0091773877343561,-0.0122134862209458,-0.00630427816787,0.0022061026534262,0.0034827829229898,0.00098368101814,0.0054564921688056,0.015442307031473,0.0102240775541313,-0.0046082861037203,-0.0164684502432885,-0.0435302871672092,-0.0008092640119533,0.0345207229322502,0.0301818103958844,0.0098509671840694,-0.011138642634035,-0.0219885346834674,-0.0153899745301601,-0.005613910315091,0.0027162158819687,0.0097901100644295,0.0107172646356765,0.008292875471883,0.0034329481019476,-0.0021330609105522,-0.0062114203497006,-0.0061422257555882,-0.0063546191926814,-0.008362529376443,-0.0004075316141464,0.0126376941905591,0.0039531195853818,0.0037719447840862,-0.0034297902619588,0.0049090549149554,0.0069506638685759,0.0012547240854265,-0.0151910614190554,-0.0165957695343027,0.0004235117863105,0.0036582459793805,0.0051313165688378,0.0091504636886531,0.0137537105276335,0.0098907467385123,-0.0051417396994023
-3.488211556701779e-05,0.0023426015837553,0.0039952194254949,0.0039305712882256,0.0018903885673047,-0.0014322418498505,-0.0046119607712246,-0.006102241819081,-0.0049751051964559,-0.0014311226456625,0.0031812772117637,0.0068768205137464,0.0078825699524801,0.005473193912286,0.0004091291545176,-0.0052707434438626,-0.0090738879830577,-0.0091636082262459,-0.0052474416826502,0.0011916647071021,0.0074650311944884,0.0108227745757563,0.009677198487485,0.004354285136811,-0.0029887303798896,-0.0092709497872275,-0.0118193533453291,-0.0095170599716839,-0.0032619528277024,0.0044293342927316,0.0104575340297983,0.0123711497461388,0.0093231957294709,0.002419500950287,-0.0056663120577139,-0.0116942905407801,-0.0131280760675785,-0.0091911299296351,-0.0012760857323992,0.0074969363593346,0.0134622834180349,0.0139231203431385,0.0083966018053706,-0.000998312323769,-0.010298192419164,-0.0153696289749114,-0.0137901394596768,-0.0060505826759023,0.0045442233569549,0.0132990463555983,0.0162475630347267,0.0119820514500571,0.0023359680230562,-0.008403912710543,-0.0154123507650723,-0.015518301463881,-0.0086790997308162,0.0019742463760524,0.0115867369505537,0.0158527747381815,0.0130039300287604,0.0045442966101109,-0.0055751381769918,-0.0128654096771131,-0.0143296765717517,-0.0096776996404504,-0.0012486696655748,0.0072022312923237,0.012208784143604,0.0120060829350413,0.007087720715449,-0.0002259126844887,-0.0069140520314513,-0.0105263807079857,-0.0100510335747161,-0.0060770226114904,-0.0003091936963524,0.0052183769726019,0.0088256675797189,0.0095451653495072,0.0072024060271163,0.0023984632504623,-0.0035251624793755,-0.0086611010806644,-0.0110314881216912,-0.0093824276074331,-0.0039300277961386,0.0034437320184175,0.009829894091239,0.0125512220259623,0.0103964926659,0.0041683953939907,-0.0037034184434029,-0.0102110401749331,-0.0129377359451797,-0.0108894531542525,-0.0047829275332569,0.0032133805011888,0.0101945960489245,0.01351941972648,0.0118012899740179,0.005516925907529,-0.0030623359529922,-0.0106639942375884,-0.0142731435792189,-0.0123670298999075,-0.0055937692883518,0.0034352177902445,0.0111814444083018,0.0146019508878049,0.0123517807823434,0.0052914944761027,-0.0038597521040818,-0.0115611893357763,-0.0147901515619577,-0.0122095870472348,-0.0047400508940089,0.0047099075203058,0.0123270600228269,0.0149376921445884,0.0113896058974084,0.0031154544851672,-0.0064473396072827,-0.0108551245502486,-0.0148815807528926,-0.0106113953561019,-0.0024216491892679,0.006445084499152,0.012662680787735,0.0139755810638131,0.0099163486119747,0.0019465176220006,-0.0070001293222256,-0.0134957004280966,-0.0148787353937408,-0.0103592455986145,-0.0014602133866938,0.008497884796935,0.0157011911673983,0.0173219276155809,0.0124329284965214,0.00191474066671,-0.012504103758752,-0.0293329276209454,-0.0329104444655345,0.009253854242901,0.0248386701611971,0.0186097575743222,0.0022988947067596,0.0054722376982586,0.0038705087250998,-0.0020306843537555,-0.0128595457787391,-0.018869514792368,-0.0147401861134496,0.0024325175381417,0.0136185719447108,0.0146095662166988,0.0102385458978871,0.0024347316119324,0.0057664498992794,-0.0007260826691122,-0.0193034952972538,-0.0279688905297214,0.002963356740543,0.0171085800237837,0.0098895021522667,-0.0029498058317313,-0.0068654607519329,0.0061342438000425,0.0177300330543484,0.0049350473705566,-0.0055634456443212,-0.0152003434404011,-0.0211186047548637,-0.0162146021011216,0.0129192683282173,0.0279892650743358,0.0097056372804339,0.0017851258087776,0.0096787201837049,-0.0091403144354218,-0.0312865837912762,-0.0145545332556957,0.0042269635931574,0.0239200654701598,0.0177492032099294,0.0019588665602972,-0.0033586665178823,-0.0185625111698263,-0.0281196613405704,0.0062717833928306,0.0299618551082552,0.0160118883945392,-0.001991496529334,0.0005081608832641,-0.0177164919349569,-0.0290162880400934,-0.0024131930181403,0.0150309409532026,0.015216743871049,0.0206298189817615,0.0059639470647345,-0.0173141649427082,-0.0131576674206281,-0.0158353112654462,-0.0017826938216662,0.0239743406283955,0.0113344993736594,-0.0133773602447042,-0.0116223292938197,0.0056774707447179,0.0065162197302359,0.0059923715477389,0.003131432275116,-0.0082325543286742,-0.0154104082930318,0.0048398073099451,0.0050948190927146,0.00466084587499,-0.0020623553901572,0.0085402519006077,0.0074134396239503,-0.0188670209268052,-0.0293744531959853,0.0262460784459438,0.0214762677047284,0.0051900426601755,-0.0211171338973915,-0.0178487951850247,0.0090249893359315,0.0202677708391083,-0.0038088592664474,-0.0007490235281353,3.958305969138977e-05,-0.0091593199385388,-0.0190127117069194,-0.0071316007981113,0.025368116585245,0.0306356762068956,0.0049120327784188,-0.0085379968577431,-0.0263691927078837,-0.0421636601822473,0.0228697883291487,0.0353761929571037,-0.0018801941107862,-0.0173945726371962,-0.0119538976169324,0.004870084049525,0.0438346875158117,0.0245295688361908,-0.0254686143037337,-0.0566619433709304,-0.0495904330367825,0.0286111248682199,0.0654787567281605,0.0212907600297067,-0.0197115327224371,-0.004703772191389,-0.005188058218583,-0.005243497007662,-0.0001945992464171,-0.0151312625818771,-0.020877717696773,-0.0006351913548669,0.0167765625958167,0.0291767470383654,0.022044938661352,0.0015938931205459,-0.0155201193944365,-0.0179975200595634,-0.0208938229931076,-0.0213031521080863,-0.0004527117217049,0.0269931974696255,0.0232605349148231,0.019351602469265,0.0023136515119533,-0.001614417457825,-0.0354898041114038,-0.0287175431624544,0.0055654987813265,0.0217581285733492,0.0063060446482088,-0.0002979477353703,0.0141187691591013,0.0035642150258268,-0.0148959743159914,-0.0087717389530084,0.0009714794922318,0.0042730027235325,0.0011560437873784,-0.0098621428179541,-0.0034877559522122,0.0141458173054662,0.0189562397068211,-0.0003251651411652,-0.0203296506620334,-0.0218198406895687,0.0036795140315997,0.0124318805971912,0.0115208807936812,0.0117601945656772,0.0043161577971287,-0.009121013454008,-0.0260142239765672,-0.0071667231532565,0.0008300482861983,0.0133762560870564,0.0116322228944642,0.0089711566325754,0.0027466549589977,-0.0039537427281217,-0.0028200455622607,-0.0173856768507967,-0.0179186311722348,0.0077448658925246,0.0129489747216143,0.0080016682262595,0.0054321582192101,0.0043564112977377,-0.000425899973783,-0.0100974259940306,-0.0042357412521031,-0.0050184793469634,-0.0025613873784162,9.58835835276075e-06,0.0028925781945154,0.0077364735718125,0.0034388710868468,0.0008436149071284,0.0043270311307088,-0.0010125577970938,-0.0054995842960715,-0.0118334005761149,-0.0058385131896589,-0.0018434350242682,0.0084666549539472,0.0166748669426677,0.0110554607799033,-0.0019184878072959,-0.0122683838362432,-0.022219420998619,-0.0031849679364272,0.0076761350996849,0.0112473486282506,0.0109675646283448,0.0043296052589267,-0.0060275750598057,-0.0125272889925324,-0.0084508412933273,0.0056205209165317,0.0107351835756264,0.0035649433825568,-0.0101848113093372,-0.0060664738498015,0.0077779900591262,0.0059493824154179,-0.0005008071233388,-0.0032328329406565,-0.0033233264930178,-0.0001918975803954,-0.001654315171489,0.0026542648340851,0.000482447567398,-0.0016834260060478,0.0041034301045849,0.0045319402673366,0.0007693118894368,-0.00569876030403,-0.0056672842937264,-0.0046731774929077,-0.0021098542754221,0.0055768107141499,0.0093070455978198,0.0070935952866982,0.001364583341847,-0.0046420024420148,-0.0081398607630294,-0.0077695944621041,-0.0039609701360074,0.001415858525872,0.0059429382753218,0.007712917169622,0.0061087863349439,0.001988982961232,-0.0027654386963132,-0.0061065762048532,-0.0066921927235141,-0.004414170325622,-0.000387449849158,0.0035713892559276,0.0057466581008534,0.005267870774373,0.0024768136031789,-0.0012478514821142,-0.0041381895985757,-0.0048687515903657,-0.0031867152011198,-3.16487861650117e-05,0.0029327397605275,0.0041635508495728,0.0030429154421091,0.0002192313393833,-0.0027171358543352,-0.0040805745195972,-0.003022718375653,-4.029689424288224e-05,0.0032448674927319,0.0049445869960483,0.0039486072581534,0.0005785897881142,-0.0035214645480526,-0.0062111590382651,-0.0059568811751914,-0.0026373996375806,0.0023455504514519,0.0066904547914038,0.0082533970781445,0.006063774514682,0.0008475503878204,-0.0051974653921388,-0.0093259981339184,-0.0094996032697873,-0.005397573330911,0.0013342666300853,0.0077713194139266,0.0110325947087979,0.0096012511864036,0.0040134538357251,-0.0033836684244194,-0.0094566493353858,-0.0116189262015647,-0.0089155896143726,-0.0024362989753348,0.0051085602478244,0.010508277935131,0.0114386207606572,0.0075110745587125,0.0004637221690433,-0.0066355632924726,-0.0107834868996088,-0.0103362717448684,-0.0056215631759551,0.0013089514313901,0.0075761629402503,0.01062918978431,0.0092487695809238,0.0040352684325717,-0.0028371760706763,-0.0085303684029764,-0.0107220660417735,-0.0085306097777523,-0.0028215168626421,0.0041560931520691,0.009621929225696,0.0113224655598256,0.0084489912086366,0.0020398797237274,-0.0053803190066315,-0.0108338336114461,-0.0121337049119188,-0.0087516918126868,-0.0019480283016668,0.0057915304872575,0.0116733424027093,0.0135084195732219,0.0104049917483376,0.0031310983117939,-0.0059642352848366,-0.0135713270051808,-0.0165292768222987,-0.0131100022565183,-0.0039616397843145,0.0077863761903386,0.0174814167874304,0.0207443809822109,0.0154267845734205,0.0028375110507118,-0.0124303958697063,-0.0241391721426787,-0.0269033595024954,-0.0185416317196806,-0.0013402561207314,0.032804707221793,0.05197645183832,0.0399578653330423,-0.0061466362349376,-0.0837452479511236,-0.0878284175889492,0.0487203786626825,0.0623799736065464,0.0292566127909106,-0.0069943060259276,-0.021293251206877,-0.0174191628012374,-0.0062758648882737,0.0032520522104607,0.005781800270042,0.0055703725761814,0.0031268792893857,-0.0007249773800443,-0.0063482619986135,-0.0058705813462819,0.0026222722633306,0.0065152154850373,0.0061230005752594,0.0026706582235152,-0.0019377099107062,-0.0056873382983118,-0.007120787733454,-0.0057825109771514,0.0002316518701162,0.0020662876070625,0.0056161000571794,0.0070973326113416,,,
-0.004080040222881,-0.0004025367065557,0.0035725250221665,0.0061100572531446,0.005999774953894,0.0032081083768025,-0.0010110733972393,-0.004658355390512,-0.0059565894767135,-0.0042738897797926,-0.00050568547228,0.0033423330154889,0.0052059726604824,0.0040963267294557,0.0006686393349265,-0.0031206238491112,-0.0050922967613109,-0.0040609731780362,-0.0005147825948444,0.0036213924644104,0.006019382671955,0.0052190976642396,0.0014438495929095,-0.0034817032647477,-0.0070572985507041,-0.0073765062944776,-0.0040867767511919,0.0014206306240668,0.0066524691148529,0.0091605101255714,0.0076624168890226,0.0026444607065353,-0.0038100010130786,-0.0088980980385864,-0.010319650543577,-0.0073218320608854,-0.0010874974258496,0.0057462089048112,0.0102483750505006,0.0104966849644413,0.0064039356816026,-0.0002992395572282,-0.0068600526700818,-0.0106555743308083,-0.0101929659450136,-0.0056255054710376,0.0013034568547772,0.0078405259077194,0.0112207163830908,0.0098382927880492,0.004114638260229,-0.0034779536987818,-0.0094480139009565,-0.0109745289510976,-0.0073824516371385,-0.000549294929919,0.0060622624084279,0.0092547547552006,0.0077755819076242,0.0028500587696148,-0.0026914215964787,-0.0060821199628423,-0.0060511208629937,-0.003246367622679,0.0004360500537378,0.0030673489724691,0.0036806501564964,0.002537257268514,0.0006664582799759,-0.0008967805595655,-0.0016567602837871,-0.0017062988993048,-0.0013807359043349,-0.0008713594723912,-0.0001198627699719,0.0009599430839864,0.0021736774969418,0.0029565617150435,0.0026200229014075,0.00079279401945,-0.0022202527403333,-0.0053938618933383,-0.0073248981260398,-0.0068370160537799,0.0012919943888353,0.0111768632185945,0.0155354007161791,0.0111326435195449,2.8177991667003595e-06,-0.0140387832891435,-0.0293624368253383,-0.0172138420263853,0.0158693037930374,0.022675228383425,0.0128847885182086,0.0022368105793593,-0.0047165856851828,-0.0016101499980478,-0.008086510586958,-0.0122945499467372,-0.0108138603309487,0.0090894034838209,0.0119092513591344,0.0068153472024904,0.001420476433393,-0.0037858623787313,-0.0069522864518385,0.0012629294268894,0.0075960054678413,0.0011762973920568,-0.0084301606645376,-0.0247937724837035,0.0001781119960202,0.0308012745189467,0.027217500051141,-0.0016318587260612,-0.0329862452387688,-0.0231482543263862,0.0042138529665129,0.0091751325045012,0.0074815139273009,0.0163998806127358,0.0085555012449351,-0.0144465346222483,0.0064957066994959,-0.0060489935702356,-0.0346904543545274,0.002010519942725,0.0176808422076859,0.014882870103852,0.007425639051786,0.0014970685555878,-0.0018050913515344,-0.0123816608020224,-0.0190640428823971,-0.0008121248353225,0.0113182960012972,0.0144334127906944,0.008114497029437,-0.0151458212546757,-0.003228723645266,0.0040424009021274,0.0022954013479068,-0.003405320507877,-0.0024024330477175,-0.0082718826886133,-0.0026375865078804,0.0090422964282014,0.0132762743379717,0.0095626776051234,0.0081110421708917,-0.0181674627272111,-0.0279919766639984,-0.0080467416290602,0.007237563002551,0.006769753665757,0.016935759617972,0.0163956593926051,0.0134742510813415,-0.007673275425744,-0.0290999364054662,-0.0173689152451709,-0.0016066949975209,-0.0022166571024915,0.0209304229369262,0.0171997458876392,0.0033067113065565,-0.0074271162504302,-0.0122208563969292,-0.0003854656004821,0.0037278961113235,0.0062963198591761,-0.0033528006357908,-0.006077117882145,-0.0137180435668112,-0.0007183189541726,0.0083882335239398,0.0203251250923459,0.0179844279722153,-0.0032232385530462,-0.0343443225088159,-0.0231730470609786,0.0075793419089464,0.0207573656899241,0.0146505901719572,0.0044980610121971,0.0056056709794399,-0.0212667822623317,-0.0189824550483701,0.006047728965791,0.0102413868323116,-0.0037496825226969,0.0050032982880043,0.0033292410761728,0.0132810640800229,0.0013386698797727,-0.021542969738322,-0.0205584801078262,0.0211845261990536,0.0153501896899279,-0.0100025971317309,-0.0109405823635301,0.0093955606907713,0.0069209142389076,-0.0036873341689585,-0.0088852371664448,0.0065793489395342,0.0005503749668666,-0.0085653301736034,-5.847375839839417e-05,0.0159952443767766,0.0059087977703933,-0.0043906348250704,-0.0253355867551888,-0.007108217209814,0.0166961381952655,0.0152563959061566,-0.0077797335977717,-0.0050793433941632,0.0141993292030858,0.0128712330395049,-0.0225730326443962,-0.0225114810970822,-0.0023492338172287,0.0169833181165845,0.0111155530781022,-0.0028506408803802,0.0008123172136647,0.0208574663109026,-0.0083700618928075,-0.0135139223802072,-0.0161313734742485,-0.0097724728279418,0.010114334647892,0.0044349750832993,0.0237112594719675,0.0055054618953908,-0.0111527369309412,-0.0019472151955335,-0.0208953652443244,0.0186066394833542,-0.0027463614767214,0.0010370313249483,-0.0056470894578622,-0.0223737768898055,0.0113790399695936,0.0257855642895019,-0.0090637376716008,0.0123373174512889,0.0024091576646323,-0.0101815832191686,-0.0072622763054398,-0.0019252669671186,-0.013429655402418,0.0052289744040688,-0.0089053001420477,-0.0115797677034641,0.0323921004176252,0.0298957015498126,0.0128124046248967,-0.0089739510695768,-0.0266832406921358,-0.0322001046033283,-0.0301856187101648,-0.0004150850880945,0.0363014098693727,0.0352638039414254,0.0309947171453471,-0.0023918842479265,-0.0204875132054484,-0.0207542719055686,-0.0264835398249611,-0.026742549322695,0.0080722664790422,0.0230639350214309,0.0323856805003162,0.0172034987658594,-0.0040111039591746,-0.0179626038474604,-0.0006142743021426,-0.0078168929971892,-0.0137127305536814,-0.0134214519401128,0.0023565516013771,0.005956849324585,0.0106124068307708,0.0199642378493455,0.0147007983228265,0.0026625994661405,-0.0041529725479185,-0.0323432829729255,-0.0300782691131237,0.0046222863308844,-0.0010588805986413,0.0272917740880858,0.0283197443761104,0.0108859111399536,-0.0050363952880639,-0.0295235756762435,-0.0179462735792261,-0.0010761080169371,0.0017191827068562,0.0184962448917439,0.005809168680032,-0.0057159487934161,0.0015044499041837,0.0078700849018236,-0.0070355530388568,-0.0063967999414912,-0.0059130789941321,0.0032182877495257,0.0119837825674561,-0.0042626723439881,-0.0092389249359808,0.0064801311047176,0.0049631980933971,-0.0063347537263273,-0.0024135440548828,0.0106680237804861,0.0093873750112614,-0.0154120591582549,-0.0254636073572722,-0.0006574355571844,0.0324929195866451,0.0187189674780275,0.0031389668804093,-0.011440007224843,-0.041455699755707,-0.0248892328107026,0.0348204256880611,0.0354563764871186,0.0043435391265788,-0.0180166075236032,-0.0096669239717638,-0.0014561276521756,0.0058243994817473,-0.0003238314019172,-0.0139428141657157,-0.0018153617212846,0.010361222085097,0.0167197798548489,-0.0078595592861751,0.0018305614199775,-0.0024591726937765,-0.0094621140786585,-0.0055977979677701,-0.0019967323235708,0.0118171693574722,0.0126955574649158,0.0067807182602001,-0.0038282910502862,-0.0268248056418239,-0.0205548219781663,0.0136019774822349,0.0181782000660934,0.0145595731867768,0.0049067494315289,0.0023090458004584,-0.0058558839016503,-0.0194043776815854,-0.0282090866839925,0.0071386860725566,0.0203682215020514,0.0133097794600676,0.0014527345543466,-0.0060824525681554,-0.0022568632060464,0.0039781389237423,0.0062193921510174,0.0002384537954266,-0.012607833622717,-0.0192528618308811,-0.0070850365214157,0.0156689451691884,0.0162763681377275,0.0054825674346423,0.0040765907093891,0.00196392741098,-0.0163097669805459,-0.0137036801331708,0.0066333091267709,0.0113231429418988,0.0056249655054705,-0.0065211806487502,-0.0157850133635357,-0.0171687795359772,0.0131761978941253,0.0220918093110212,0.0200587650715379,0.0045000966832529,-0.0120459874671074,-0.0197657961869964,-0.0191322574478432,-0.0099651540043129,0.0096297207207497,0.0180034011338103,0.010169236823096,0.0084525135549896,0.0022231654826664,-0.0074736324814086,-0.0095189914185682,-0.0047927767553761,-0.0046884978319009,-0.0024225463977756,0.0039953371421809,0.001681722849132,-0.0006950000269649,0.0064828927974344,0.0095205380769719,0.0040705505260492,-0.0031424357416272,-0.0083418005613731,-0.0087006009820873,-0.0062108401234543,0.0020084176626496,0.0036366456325635,0.0016957554203572,0.006538935289979,0.0076503312498325,0.0005868756937985,-0.002081048922823,-0.0069303292451329,-0.0044654145939609,-0.0011622083098812,0.000112752408111,0.0001520848376704,0.0001297312017447,0.0008141500267829,0.0021602509450109,0.0034259617483719,0.0036699297095669,0.0023233637915927,-0.000440220508003,-0.0036795884959072,-0.0060151307392975,-0.0062107038674932,-0.0037919006894444,0.0005902841379777,0.0052847885359434,0.0082725364182326,0.0080560375481443,0.0044043109043161,-0.0014090704190835,-0.0070347710016744,-0.0100165995173371,-0.0089033315400989,-0.0039817899573654,0.0027621875829479,0.0084847687518991,0.0107429156225341,0.0085718417953356,0.0028903013115055,-0.0039185580216669,-0.0090378217300524,-0.010408267718297,-0.0075814819660949,-0.0018832787436316,0.0041696671438822,0.007945105323648,0.0078278474714625,0.0113118311246076,0.0052432508659183,-0.0080345108394721,-0.0115512495612975,-0.0112873786749641,-0.0070279671943734,-4.351660597079632e-06,0.007358663054741,0.0121955291885753,0.0121626069009933,0.0062119115311185,-0.005087189108439,-0.0195828008249972,-0.0092827697928318,0.0052011400328308,0.0024104237284574,0.0021876712233985,0.0024240822703882,0.0046854269596116,0.0028381779776002,-0.0027329634337345,-0.0004088246892358,-0.0010812689548751,-0.0025675002212372,-0.003025495596338,-0.0017613276104006,0.0006596969265912,0.0029163354692952,0.0037457808580887,0.0026584909340609,0.0002030399818364,-0.0023546105191293,-0.0037724203200267,-0.0035693291470644,-0.0022784450537192,0.0038677559638684,0.0065935363424349,0.0055388873734014,-0.0036226034394513,-0.004938056719946,-0.0046511236298857,-0.0023670708406793,0.0010861341976893,0.0039665532449417,0.0046097759087977,0.0025286037327349,-0.0010757038244518,-0.0038194037140764,-0.0035385561424735,7.488826073195765e-05,0.0045126961763094,0.0048976782498601,-0.0039655063609036,-0.0243875104465175,0.0104772528026306,0.0213487152417393,,,,
0.0082216165556331,0.0129469865733825,0.012870917968779,0.0080096488680317,6.055046510076989e-05,-0.0081577033642465,-0.0136219706415597,-0.0141507514905013,-0.0092744491086329,-0.0005839408978303,0.0086975915319761,0.0148920034732052,0.015379923614772,0.0097842614340135,0.0002376759295042,-0.009444998710709,-0.0153532632309981,-0.0151331975728722,-0.0089777297134443,0.0004795331970947,0.0093183757347857,0.0140257661172425,0.0129802172449049,0.0070619616708626,-0.0008837048339338,-0.0074581803153769,-0.0102861209330312,-0.008960166688206,-0.0049069741176767,-0.00034412249782,0.002985450878155,0.0045373248133052,0.0048026572020158,0.0045326069907337,0.0040038969913053,0.0028655428771402,0.0006183553763989,-0.0026977512891112,-0.0061580123631028,-0.0082311609391702,-0.0075445779857802,-0.0037076166382984,0.002263996587305,0.0081796378836787,0.0115123321132477,0.0105142972824787,0.0051222464241546,-0.0028014037934122,-0.0100989188158325,-0.0136290652114473,-0.011695121041312,-0.0048979671518063,0.0040349118389867,0.0113978267571358,0.0141134181431392,0.0110695926029749,0.0035919811208698,-0.0051496546879986,-0.0115288859173539,-0.0130234002484257,-0.0092544957509779,-0.0020483848430275,0.0054770299143725,0.0103248186172799,0.010838727053208,0.0072099252182346,0.0011762660400192,-0.0048056656503262,-0.0085115535938444,-0.0087078431289677,-0.0055393043041447,-0.0004545141148823,0.0043477074732363,0.0068245062467102,0.0060202335252818,0.0025781024511523,-0.0014959591963008,-0.0038050509417033,-0.0028783659923723,0.0007606488065569,0.0043098050068706,0.0034522296705535,-0.0059081894942299,-0.0252748249333553,-0.0026075071519738,0.0254857174957098,0.0160769023430459,0.0032621127169831,-0.0058659956317452,-0.0083097255589032,-0.0072932154453015,-0.0035700864162592,-0.0034298888278156,-0.0013614935346873,-0.0021673367220864,0.0106276336233954,0.0078971156658748,0.0048786556736205,0.0017545830148413,0.0003821516994414,-0.0030387196349307,-0.0093887593870703,-0.0137291888062528,-0.0045940987812535,-0.0003186603040409,0.0092819746373247,0.0119465007012223,0.0132816951437006,0.0086299985407309,-0.0041413697739861,-0.0146123215750433,-0.0161425761667661,-0.0079874167815636,-0.0011807170232771,-0.00097180207284,0.0144573188687555,0.0196964308969545,0.0136993627108895,-0.0018770068551921,-0.0148280143245782,-0.0275160757957775,-0.0064806320922982,0.0058764114150716,0.0115678876364814,0.0155722044865828,0.0059192747443485,-0.0049505550952741,-0.0098641017529595,-0.0068793239247684,-0.0045280743449339,0.0094701996828705,0.0059340411114795,0.0019376423790489,-0.003373771146173,-0.0159437863095841,0.000747899914229,0.014349884761924,0.0120607741913331,-8.138846151173535e-05,-0.0128309217781745,-0.0127937335827284,-0.003215509072988,0.0053805530393656,0.0102419578734657,0.0128029156482567,-0.0003912813059054,-0.0180801172631255,0.0007677187007652,0.0009316582379325,-0.0028095457421076,0.0034656094406152,0.0054971033227311,0.005361351966517,-0.0057371460467472,-0.0128204135734701,-0.0037498175699779,0.0115979339846114,0.0188418298466747,-0.0045553687895324,-0.015946809531223,-0.0008919771701134,-0.0011621609223896,0.0030312728292121,-0.0006637630493786,0.0059718224006224,-0.0025280074403047,-0.0047614360246938,0.0098782231461187,0.0056289833249217,-0.0117625741552346,-0.0049931214826025,0.0028781055676407,0.0039979662439171,0.0034608431501292,-0.0116620175240577,-0.0036308450033484,0.015611739612805,0.0076903923388954,-0.0036621203042735,-0.0147779894668308,-0.0076221600082505,0.0121142906890812,0.0086296935710786,-0.0024241119982582,-0.0048430243250377,-0.0071969756587759,0.0084847555299103,0.0078567181544021,-0.0152343181973199,-0.0080154390334202,0.0189055465470829,0.0126664860140083,-0.0131636359611913,-0.0162055766919245,0.0010969725191259,0.0094948310154372,0.0145507181716752,-0.0043268295074458,-0.0124312977168095,-0.0037575671780692,0.0005308819781667,0.0029401741654036,0.0032363430357248,0.0089346672309416,0.0052392979470914,-0.0078130600259857,-0.0123415979926594,-6.192574055796768e-05,-0.0021940674717205,-0.0003269441505979,-0.0013067384503229,0.0212830290352884,0.0128014421845812,-0.0047888892182852,-0.0214653071396588,-0.0139780943447036,0.0005047866908455,0.0072290770617816,0.0072615404074117,-0.0017931011095476,0.0128804217813159,0.0128848555415195,-0.0023340126902286,-0.0236164007011493,-0.0159540496159656,0.0082105153342032,0.0027936947077476,0.0033910892761263,0.0021453930857799,0.0080034820375073,0.0038827082084496,0.0106439546218643,0.0011836029254374,-0.0126148821057807,-0.0255492083200772,-0.02498986787849,0.0220275249226651,0.0209837718312239,0.0150498347487631,0.0158856946150984,-0.0169873526348844,-0.0183394786838959,0.0031946286444514,0.0046100054672245,-0.0175487770890612,-0.0110468714223387,0.0123781523509971,0.0158301425005436,0.0136520753858181,-0.0105336780348029,0.0028797701712161,-0.0013058001907442,-0.0092791146909923,-0.0074054085273604,0.0064799050740003,0.003766531990839,-0.0127521616886024,-0.0107807720441583,0.0125830166926093,0.0255563503235627,0.0116741103007472,-0.0136017693747122,-0.0126100923568716,-0.0039699807268193,-0.012125210190603,-0.0053892671644464,0.0068250522204869,0.0141814873316373,-0.0001255836730177,-0.0038859576532916,0.0109067777240512,0.0218082083765538,-0.0001526908492941,-0.0234227569908531,-0.0294809387384126,-0.0223188102666902,0.0179895430894221,0.0208352377688036,0.0099199698803726,0.0235614165193131,0.0176240508708277,-0.0125188988913894,-0.0436087949752285,-0.0242141933192217,0.0107952082047702,0.0181420002526536,0.012782479840629,-0.0007239781535742,-0.0059434729901559,-0.0032394459548997,0.0075305581118183,0.0079081861294699,-0.0051183351934586,0.0007913802182442,0.0010800001300986,-0.0047111135332857,-0.010463109291851,-0.0172564839172572,-0.0058654526990251,0.0152874733461456,0.0223990412560727,0.0197295129058478,0.003970606356235,-0.0096177965661574,-0.0193561588324736,-0.0093004014832861,-0.0076049709771111,-0.0204868058301749,0.0028075353158277,0.0269350295207449,0.0246523312348639,0.007193568467596,-0.0047236395680197,-0.0124483942962821,-0.0023007385278397,-0.0077316312473608,-0.0129070129063581,-0.0094033866140416,-0.0019310926322502,0.0104777161124867,0.0234977914873482,0.0110508676672542,0.002541446847072,-0.0075023387923178,-0.0171526569739721,0.0015865109510151,0.000634391561144,-0.0106282305400399,-0.017765781192957,-0.0035151988889803,0.0310117988574993,0.0314167744936003,0.0104583213943857,-0.0203463390224845,-0.0371660199480328,-0.0109982613358631,0.009679513463556,0.0109144677451284,0.0151706179184098,0.0123845818552082,-0.010379040255171,-0.02287798132475,-0.0094518060535703,0.0158285060581507,0.016927366850748,0.0069316954172907,-0.0048730110115833,-0.008902818896471,-0.0111101770662951,-0.0113431966272602,0.0011243663039864,0.0105868437001936,0.0056697290438414,0.0131907990070608,0.0087024683778855,-0.0027799443667465,-0.012118463092588,-0.0145534708788477,-0.0119272711300765,-0.0037845586881006,0.0108537977103723,0.0206153642988317,0.0128894609814987,0.0007581018758287,-0.0055050977451005,-0.0173441655046976,-0.0166225321023867,-0.0038404319539275,0.011070265988711,0.0191836018449044,0.0098261506383729,-0.0134757404221823,-0.001805274827487,0.0215084815811988,-0.043264699917212,-0.0183907293944071,0.0326529160874276,0.0251574438382472,0.0018957781967606,-0.012455200991531,-0.0138983104106586,-0.0064944127703445,0.0009211702582939,0.004666670401977,0.0057893804454033,0.0036011531075363,0.0012421631950228,-0.0014232155608073,-0.0057219749972699,-0.0023363513611315,0.0034879357384346,0.0044881199736153,0.0018964571742786,-0.002126988883204,-0.0051607522751079,-0.0054588960667502,-0.0027042479003911,0.0018596202249954,0.0060349821519158,0.0077274086578087,0.0059380748064544,0.0012404588705245,-0.0044389973482561,-0.0086213702862839,-0.0093343409928828,-0.006010450163626,0.0001656982721232,0.0066638678756883,0.0106511208978724,0.0102396169057728,0.0053787716733076,-0.0020259944425153,-0.0088495677063706,-0.0120598069046446,-0.0100778923545851,-0.0035885648491646,0.004632331547872,0.0108970784830907,0.0123055747536937,0.008151877861409,0.0003167798382491,-0.0075813160621588,-0.0118820948100458,-0.0106136767284307,-0.0044312198714988,0.0036892980012119,0.0098694276656019,0.0111885337880843,0.0070875055013519,-0.0003697858639197,-0.0075062511435398,-0.0108235488907274,-0.0087107935707553,-0.0022405297564453,0.0053478322641506,0.0102439078541536,0.0099677182661016,0.0046292221430996,-0.0031032492343126,-0.0093361633117525,-0.0109241968220446,-0.0070689037081685,0.0002898247668518,0.0074815253476205,0.0109688747000122,0.0091043112875376,0.0029066999393008,-0.0045043923239167,-0.0095108344482934,-0.0098088698147114,-0.0054977800623693,0.0010973247461122,0.0067111510909008,0.0087904698402481,0.0066500494089939,0.0016275452424476,-0.0037140070525066,-0.0068622370680318,-0.0064970441651861,-0.0030164905073569,0.001733926260626,0.0053704059955863,0.0061049521863389,0.0036004706986756,-0.000852788398667,-0.0049535812165963,-0.0065326015527762,-0.0046626567506622,-0.0001618849560248,0.0047808289607261,0.0076742222213181,0.0069514915730094,0.0027509019628718,-0.0031217291053958,-0.0080140449851946,-0.0096275677473174,-0.0070449082358444,-0.0011525425491102,0.0056873673344217,0.0105743705203279,0.0112701302900319,0.0072044129357814,-0.0001595043372662,-0.0078403657313496,-0.0125839374077691,-0.012294941476761,-0.0069800457148505,0.0012443404008619,0.0090674221957724,0.0133816069612169,0.0125331247107262,0.0069146324879112,-0.0012802945694847,-0.0089646412461069,-0.0133288658781722,-0.0128374070396137,-0.0077204638210118,0.0001727540295492,0.0080668553019163,0.013223341918639,0.0138329781514089,0.0095744105534743,0.0017275314833379,-0.0071548459348683,-0.0139643574862472,-0.0160312931481123,-0.0121536428029048,-0.0032806316267933,0.0075377522337035,0.0161077848412883,0.0187265728310648,0.0138596040369884,0.0030596387530291,-0.0094417356951933,-0.0184415741559523,-0.0200533409318456,,,,
-0.0049611620960899,-0.0030506898840978,-0.0003297875338357,0.0020085517552107,0.0031813435211566,0.002991408926668,0.0017572337500651,0.0001090781515909,-0.0012761108169966,-0.0019400451774597,-0.0018074871775743,-0.0011495367683199,-0.0003568422744607,0.0003164930733818,0.0008423549421157,0.0012854209262304,0.0015908116261727,0.0015122461426229,0.0007811044023329,-0.0005974962842412,-0.0021665304137076,-0.0031410355476163,-0.0028101600108216,-0.0009936683493391,0.0017237860253202,0.0041459164920773,0.004976737527153,0.0034808253771508,-2.094640273347913e-05,-0.0041104356384288,-0.0068054831885183,-0.0065038676707337,-0.0029027049367996,0.0026279691171335,0.0075269162462316,0.009243325722541,0.0065855011871907,0.0004859753989197,-0.0062994494314066,-0.0104893455911541,-0.0099337365013542,-0.0047458801810773,0.0027183732761265,0.0090252074030065,0.0113380442420212,0.0087307067088808,0.0025146669328342,-0.0044985244385156,-0.0093548341458293,-0.010249860352044,-0.0071955316102628,-0.0018635240449413,0.0032293843496754,0.0058284509566345,0.0098024381547712,0.010810388762911,0.0080460728713966,-0.0038449912310478,-0.0116127733210244,-0.0126186843862131,-0.0125098586251952,-0.0050785422732887,0.0084427899255929,0.0106956329658871,0.0164687116896435,0.0092325311354493,-0.0026261576539575,-0.0084792713747745,-0.0148572668113428,-0.0064443450468159,0.0022112012075209,0.002979621340296,0.0020257805180551,0.0031431254614581,0.0012111093662711,-0.00137558449564,0.0027287853824406,0.0051699096629193,0.0041186861411448,-0.0024440091306862,-0.0056321516226111,-0.0018181626412318,-0.0097516624263285,-0.0082115279353931,0.0015661735217406,0.0066381342476356,0.0134964470784407,0.0098517238423601,0.0041537648106659,-0.0014395612872664,-0.0102850182907345,-0.0141451037828473,-0.0063544361886347,-0.0047614390159545,0.0013134662816407,0.0115233020982458,0.0104658953643487,0.0094517634788769,0.0029518273059725,-0.0024497129609969,-0.0099388042953209,-0.012697554857547,-0.0085217225964659,0.0032617995087155,0.0097761389565197,0.0028863031850399,0.000972966909457,0.0046681264345625,0.0036805248510722,-0.001431107931363,-0.0080755175211817,-0.0085790463878453,0.0068990511577777,0.0083299620949274,0.0003296288210895,-0.0060474323000073,-0.0109334242169788,-0.0055389339863841,0.0090141858331724,0.0128510399426321,0.0084018952109011,-0.0011098654051408,-0.0075037510838257,-0.0073789750769223,-0.0025234568883632,-0.0036825757320901,0.0043217920815903,-0.0051784625224788,-0.0020063701273828,0.0142835066018329,0.0093808012743415,-0.0016107076055025,-0.0066036182702215,-0.0013231571365652,-0.0053332129085575,-0.0079656896781388,-0.0023467514167941,0.0063867580775638,0.011801550420647,0.004237728738187,-0.0047710602254017,-0.0051662522212654,-0.0015693760923893,-0.0054205547900672,-0.0007214419416945,0.009946215753785,0.0043734406593282,9.62469185395157e-05,-0.0056378709117764,-0.0021960719087523,-0.0002024850818846,-0.0058180293294583,0.0010875897906773,0.0005802062685036,0.0068701649777112,0.0044744739563083,0.000452062372427,0.0021297454280003,-0.0038162283176688,-0.0061606382292904,-0.005784741263753,-0.0014125765208758,-0.005092139521109,0.0047283586084437,0.0154117893005315,0.0115980065962771,-0.0008352937469463,-0.0133187036764377,-0.0092441840455894,-0.0054337836074856,0.0039048529300777,0.0014967091889529,0.0025888017382533,-0.0030939103065355,-0.0010059628048751,0.0159406654905478,0.0154574165228093,-0.0041705344563169,-0.0257425877259147,-0.0103610042944626,0.006812222145457,0.0034374146077148,-0.0058887512321966,-0.0041856254037092,0.0149882695039536,0.0195765367461682,0.0075195639777482,-0.0049143220798914,-0.0163145508705031,-0.0171551824282963,-0.016653022308858,-0.0110805931690207,0.0270966009907904,0.0396015105778781,0.0125705335308016,-0.0258156641184213,-0.0282717261194585,0.0042804435358096,0.0062872304492631,0.002152556250364,-0.0007748837853774,0.0004874290535512,-0.0004971964377307,0.0050315012087772,0.0077627359636611,-0.0043166550034664,-0.009862681161208,-0.0052125228762686,-0.0028407330348282,0.0103870624135572,0.0128668482859894,0.0014098281508413,-0.0084177893449528,-0.0019563447228085,-0.0079131087825962,-0.0041282270532447,-0.0028455731767386,0.0046012966899501,0.0106582241436687,0.0112239595174941,0.0014812636359331,-0.0107603610582134,-0.0165829894923813,0.0005003669335431,0.0170434993287661,0.0057424594798043,-0.0084969809849637,-0.0108063986000695,-0.0086529268641477,0.0024321043159188,0.0120842918391689,0.0130498685034934,0.0144741827335886,-0.0020076836338997,-0.0180566465014597,-0.0203901161877912,-0.0121929802255414,0.0069701233904394,0.0144177772023803,0.0094998889548892,0.0113460761422681,0.0004156283010781,-0.0071671134359931,-0.002036782459861,-0.003504550043685,-0.0059830191694395,-0.0048111251650166,-0.0082604425252377,-0.0035212051966051,0.011473764799875,0.0172917930732708,0.0089385980009621,0.0018086022440589,-0.0042730941165179,-0.0105307991270754,-0.0155017237733803,-0.0094342588159363,0.0001635046110989,0.0111400521840656,0.0125217943486276,0.0018495722700667,0.0046138123466652,0.0061238959916085,-0.0037803355324862,-0.009082191039991,-0.0122907375444032,-0.00914228708944,0.0022544334320478,0.0097111909826161,0.0129984496576401,0.0068578296013381,-0.0051177822401483,-0.0094729117894824,-0.001239065144217,-0.0009465044409623,0.0010883758322638,-0.0001846811444569,0.0011178385291671,0.0042368512930631,0.0035306739412305,-0.0028467545962002,-0.0120354956725083,-0.0156047071726282,0.013734349083602,0.0209392855527831,0.0121197242023098,-0.0006295495184728,-0.0143998226103796,-0.0170551436289122,-0.0207508002792001,-0.0010524524613409,0.0213406310400887,0.0280344153506284,0.0126103913998623,-0.0071358111212679,-0.0226162829595948,-0.0256139500838523,0.0027067855994091,0.0166149553671668,0.0095703333531834,0.000781485227975,0.004408602731106,-0.0021235123261079,-0.0068349819721662,-0.0072142303983988,-0.0077674312232455,0.0045825262953736,0.0114379678243783,0.0061715726573932,0.0012758073526245,0.0014090994665249,-0.0035058632114236,-0.0095059266218133,-0.0109338975716004,-0.0048398062057776,0.0027839789525947,0.0095141289769097,0.0142997334622037,0.0112269401313945,0.0036747464726099,-0.0085443821623457,-0.0167894783224446,-0.0143037210485435,-0.0057015808744581,-0.0003055942982252,0.0094273295603651,0.0155055611787074,0.0141890102032502,0.0068864001171014,-0.0036478095971427,-0.0134520080825413,-0.0095393175262474,-0.0109681492904194,-0.0092276125260354,-0.004727516956141,0.0195738795944584,0.0218677507186988,0.011481684885326,-0.0058264901090789,-0.0143397143592702,-0.0106550569908657,-0.0043972744023119,0.0002094951783079,0.003347131017437,0.003796168130722,0.0032234772759344,0.0036168319434529,-0.0023444826098128,-0.0044551299192611,0.0035512147960105,0.0045052822639931,0.0019821862320401,-0.0028814926641421,-0.0042324457530936,-0.0076670780745477,-0.0106229248048091,0.0008978780024621,0.0158634177356656,0.0174353789937095,0.0067315676211747,-0.0047800287341861,-0.0192318102104772,-0.016818145312023,-0.003323617355633,0.0050120059545943,0.0172412967824005,0.0127798973282611,0.0016155064636092,-0.0090023563599187,-0.0113795262908372,0.0028849263898343,0.0033896240332488,-0.0050379278592983,0.0005061277172754,0.0026084852659227,-0.0063437798267808,-0.0054594896352103,0.0113331165563884,0.013411091396703,0.0071263194356545,-0.0074060528854927,-0.0149824619581319,-0.0145432201981654,0.0013382454358713,0.0075783232261889,0.0110378773666878,0.0070700737497636,6.817109850977822e-05,-0.0039898781460083,-0.0050744028472688,-0.0030596448645082,-0.0040196336402726,-0.0006695720569787,0.0030000058048882,0.0051664654439093,0.0046807216442543,0.0017066673477265,-0.0023021964765598,-0.0053083339317676,-0.0057314905904142,-0.0032692129902798,0.0009498091309466,0.0049427426266964,0.0068380107344117,0.005720565964636,0.0019879374643577,-0.00285673607293,-0.0068119806369204,-0.0081441404505406,-0.0060853350347718,-0.0012409850741334,0.0045070297161136,0.0086899551112807,0.0093381928699857,0.0059710882801705,-6.281105358843616e-05,-0.0061501655265914,-0.0096306902912161,-0.0090380796036876,-0.0047346685797558,0.0013333039498556,0.0065724376585418,0.0088840921783688,0.0075028039187079,0.0032237685530092,-0.0020100625206204,-0.0059632033498822,-0.0070692763637053,-0.0051073106622494,-0.0012653472413859,0.0024878584653121,0.0044284079312216,0.003939170897389,0.0017200973863187,-0.000739445108192,-0.0020634742519913,-0.0017205328411428,-0.0002037653658431,0.0013646821289757,0.0019217625427728,0.00104727722564,-0.0008480570450716,-0.0027766504855046,-0.0036842663750161,-0.0029448820652825,-0.0006414964106109,0.0024365603276514,0.0050567692375461,0.0059934802569184,0.00454292521156,0.0009235509522029,-0.0036444229135848,-0.0073134462511499,-0.0083679174153034,-0.0060512649259048,-0.0010308823601359,0.0047834209062599,0.0090186779787646,0.0098597865108787,0.0068468193533938,0.0010962272855042,-0.0051504600814727,-0.0094573101823442,-0.0101987318549362,-0.0071943389215169,-0.0017028630456552,0.0041817419220972,0.0084048789783459,0.0096829366309036,0.0078199711880612,0.003586309689747,-0.0016671435703439,-0.0064334928800924,-0.0093794816322795,-0.0095881446446877,-0.0067826051957088,-0.0015223566132256,0.0047609909872137,0.0100440346284775,0.0123273489315991,0.0104006544963821,0.0044442397185577,-0.003816338902012,-0.0115308546883221,-0.0156511343796358,-0.0141044717977473,-0.0068001521350687,0.003995518140978,0.0142336619981758,0.0195611712533337,0.017203227535858,0.0074319016436835,-0.0061683416484718,-0.0179715809725659,-0.0227124467410605,-0.0179567184284549,-0.0054104801633269,0.0096699341968604,0.0207764152024418,0.0230953948812335,0.0156964356377455,0.0019183663664482,-0.0122110657995126,-0.0207361522686979,-0.0203890383016407,-0.0118603163691056,0.0007769430703162,0.0120924705692167,0.0177286211992208,0.0160959131949967,0.0086631259623758,-0.0010828290548953,-0.0093230759660456,-0.0133899295292745,-0.0124891434406799,-0.0075860835333594,,,,
-0.0092412378371838,9.675131772065389e-05,0.0097456604188148,0.0153266889151459,0.0142275285305354,0.0068491455926839,-0.0035370457448499,-0.0122814966490518,-0.0155170441193673,-0.0119503680995452,-0.003401206971028,0.0061572041813779,0.0125259817355401,0.0131859157744313,0.0082865796320496,0.000355453732307,-0.0070099415063207,-0.0107837910365618,-0.0097402930074515,-0.0047904032674194,0.0016136338254253,0.0066558829552908,0.008371375070971,0.0063920218883432,0.001949798245565,-0.0028049541497039,-0.0058163526704311,-0.0059926177052921,-0.0035686985061917,0.0001360218404318,0.0033907623057897,0.0048272716608583,0.0039875333344218,0.0014450808013349,-0.0015192262964326,-0.003532235695013,-0.0037591598131101,-0.0022586081465481,0.0001064490359244,0.0021476580654049,0.0029618794190583,0.0023498503181934,0.0008323830494217,-0.000717722007297,-0.0015925903779474,-0.0016009248993694,-0.0010558049856193,-0.0004462631746865,-5.570801918350576e-05,0.0001844631261534,0.000513524858737,0.0010108007807748,0.0014195835810914,0.0013015312699047,0.0004193293105786,-0.0009589819764384,-0.0021083364723996,-0.0022692976547265,-0.0011767589634134,0.0006800448029823,0.002276041033238,0.0026396629966697,0.0014593079148422,-0.0006677219383392,-0.0025172304640034,-0.0029225101813988,-0.0014887313332608,0.0010869000133185,0.0033224123160216,0.0037665864470395,0.0018855538063791,-0.001503797176909,-0.0045626464839005,-0.0054093789910569,-0.0032325973430216,0.001116744941768,0.0054532669090603,0.0073776674086738,0.0055904646883608,0.0006760184586774,-0.0050833384275568,-0.0087910373611911,-0.0083815560834863,-0.0037097031712753,0.0032507292066414,0.0092003531173167,0.0109470122227741,0.0068567464072166,-0.0022824527288953,-0.0108336334161716,-0.0072055471844282,-0.0046823823212397,-0.0022862063836557,0.0026555752898366,0.0078836184861219,0.0081356240292199,0.0027846446892336,-0.0029518802042804,-0.003209569237571,-0.0052776956591831,-0.0050296522592902,0.0015780685070268,-0.0018236928945934,0.0034359672888359,0.0064240819338843,0.0028022845447792,0.0044834085274947,-0.0071519094910808,-0.0061969161599525,-0.0032689795936106,0.0002254049460393,-7.515072248478718e-05,0.008155433977155,0.0029585423949672,0.0013345529358905,-0.006562274875949,-0.0007417458880159,0.0046077854716391,-0.0026091338141943,-0.0060836238834462,-0.0020822131305107,-0.001031991425024,0.0142078176279018,0.006854210955212,-0.0065991239963232,-0.0150848663747904,0.0010524526947324,0.0064297460571709,0.0001919970952622,0.0059608080754787,0.0052025009435556,-0.004588351321212,-0.0046452448440051,-0.0137710107228814,-0.0066274099507242,0.0140042485034216,0.0139070215307778,0.0079024502578486,-0.0019658940506958,-0.0069320705602848,-0.0032764227179276,-0.0166113840321093,-0.0205802196026185,0.018317901834457,0.0205509443017997,0.0145926738972306,0.0029885610163596,-0.0112801385271138,-0.0145711040591203,-0.0161601534807091,-0.0011856342327991,0.0065500980131737,0.0246846415757442,0.0118065884014137,-0.0107786176618,-0.0207260532885771,-0.0052580285250523,-0.0016195559940873,0.0154736552580322,0.0175415544504547,-0.0118714755914209,-0.0039038152499572,-0.000982884677047,-0.0003877273747939,-0.0075794414240222,-0.0039535626337897,0.0028654665805874,0.0045257127810632,0.0086678095835045,0.0093717383178996,-0.0015415909065157,-0.005415453384894,-0.0111253336284972,-0.0092049058578324,-0.0009699484422713,0.005876495876044,0.0052253294877502,0.0058772916262586,0.0091402862301806,0.0016757314741869,-0.0103080152469909,-0.0075019880230457,-0.0003374285054546,0.0028273834929851,-0.0019749247257247,-0.0093660439244069,-0.0043332054555116,0.0184465966471584,0.0181999026986206,-0.0008095564113044,-0.0072033774970798,-0.0112154600088385,-0.0138057349335186,-0.0041724958586736,0.0079956886976852,0.0050042486136734,-2.305147732494894e-05,0.0143339425820455,0.0001674154959016,0.002099242085212,0.0018655906469104,-0.0073412177825881,-0.0127877774674161,-0.0127593988331133,-0.005378645980751,0.0125748800673485,0.0181924477147636,0.0096806586842867,-0.0166185152223938,0.0079778574821854,0.0120154540030798,0.0002031594669323,-0.0148787394763363,-0.0293318678996904,-0.0070815243836433,0.0060502410015491,0.0196634690515639,0.0181114607881894,0.0149373805005462,-0.0042673378400865,-0.0049902420121016,-0.0186784960335046,-0.0134285163859198,-0.0016132262867534,0.0046821612119279,-0.00285355756781,0.0030722793100044,0.0124749960391284,0.0191351921020571,-0.0046430566864383,-0.0081388319998279,-0.0012480946152909,-0.0060970448494247,-0.0060254585673712,-0.0106659011131892,0.0016433366530455,0.0034598384073275,0.0090272793877584,0.0122884393942688,0.0099992090187509,-0.0049047538755799,-0.0126025331637142,-0.0188210544918843,0.0048200915207732,0.0149704399942325,-0.0114267650539652,-0.0035774180918034,0.0253460201697956,0.0105402054299235,-0.0191418546015521,-0.0264080200210339,-0.0033218450851065,0.0154946737868793,0.0170438788263657,0.0075695320347569,0.0023754093804262,-0.0026852674251782,-0.0118502202363583,-0.0184082258562899,-0.0093175010258025,0.0049043520383581,0.0038679489961699,0.0143182302256915,0.023556513551609,0.0148696492859008,-0.0105917228628035,-0.0334341716302838,-0.0129860813753592,-0.0084139395265002,0.0080659881405072,0.0148694819664697,0.0111709701708833,0.0058269084033145,0.0032860779106823,0.0038950705851266,-0.00739542597619,-0.0189691010548519,-0.0187921042825885,0.0053102661353237,0.0146842184838467,0.0130272945162502,0.0109692806057494,-0.0039490864542855,-0.0103403914088642,-0.0113122201770175,-0.0040887027490181,0.0084991023889237,0.0024433777422298,0.0031972622340231,0.0040730093527586,-0.0099014571215877,-0.0023886112723642,-0.0016972995423249,0.0173904518590089,0.0110965526404573,-0.0049611954413193,-0.0278814934513559,-0.0333269049738421,0.0210603351826092,0.0342831340662932,0.0213985759319196,-0.0003016343511553,-0.0156731553312721,-0.0253716072867914,-0.0126197797934687,-0.0023955142911257,0.0036470880098481,0.0175516498720624,0.0223826326286891,0.0055453584710185,-0.0007195462002757,-0.0150491677956742,-0.0247770830683954,-0.0083075565746395,0.013692859522512,0.0091210280020083,0.0001747331538271,0.0089683892492049,0.0069540219728563,-0.0105562353464771,-0.0109722568814715,0.0053665341919295,0.0034803703618872,0.0036089492748972,-0.000516984459525,-0.0081951491566454,-0.0063899114873644,-0.0003278382182055,0.0028383226008235,0.0057511283787536,0.0099669014563822,0.0042187939705713,-0.0006089102990534,-0.0053070756552691,-0.0063353414905263,-0.0064919012005552,-0.0056973646325588,-0.0070967816263518,0.0046116467859083,0.0117329555627788,0.0130593921669379,0.006465944889057,0.0049255481752843,-0.0021958256872173,-0.0149408854755497,-0.0253383015413567,-0.0121572843611419,0.0073641644853415,0.0175569879329749,0.018626626522336,0.0117187733376423,0.0022341926379927,-0.0061268870627395,-0.0159015035746445,-0.0146890213665428,-0.0116390809785566,-0.0017550348541774,0.0121098274776602,0.0175018963289629,0.0141360442223263,0.0048591560250656,-0.0071730055063954,-0.0132001043115486,-0.0118593677094028,-0.0074731044923959,-0.0008594251477905,0.0058654736192961,0.0101739703785455,0.0103446942453261,0.0063468160492876,-9.390273597157784e-05,-0.006280361896562,-0.0097477915634696,-0.0092701952779456,-0.0052405275203108,0.0006341481618561,0.0060852837377451,0.0091404849204351,0.0087863976136152,0.0052487080537971,-0.0001599358310997,-0.0055320686722542,-0.0090062366328384,-0.0093491858365946,-0.0063327455788333,-0.0008384522405161,0.0053321653922178,0.0099458634481635,0.0110743671416174,0.0078983799007808,0.0012499204064413,-0.0064591599242245,-0.0120655251304853,-0.0129919197119659,-0.0084963363753899,-0.0001792218178706,0.0085810678159054,0.0140564608310713,0.0138095843427162,0.00779042722893,-0.0015996588792496,-0.0104949009458125,-0.0151783797123962,-0.0136480429700296,-0.0064799641211071,0.0033862301303563,0.0118674106068578,0.015455897660555,0.0127026978222101,0.0048203132271876,-0.0048593714003107,-0.0123308966045902,-0.0146226908842987,-0.01101403204643,-0.0032419398251022,0.0053559085810661,0.0113375155000927,0.0125955364605627,0.009097723473551,0.0026503368689631,-0.0040930435355951,-0.0087939338980763,-0.0101897128293116,-0.0082389729853919,-0.0038453364980165,0.0015086526885177,0.0060630485243207,0.0081162235619908,0.0065586465812873,0.0089054832019721,0.0067276529641789,-0.0044896758534794,-0.0153217546192244,-0.0142460216997167,-0.0086234740205279,-0.0001538686360848,0.0081397736122951,0.013084296897037,0.0127672231337698,0.0074263802693631,-0.0006619797530049,-0.0082176660404164,-0.0123521406993066,-0.0116565053134976,-0.0065866868530855,0.000855853967903,0.0079014370036546,0.0119563051934221,0.0114682391571539,0.0064993879911562,-0.0011896007512096,-0.0086625989091123,-0.0128671674909992,-0.0118933733096004,-0.0058963442642644,0.002809880159342,0.0106328164906218,0.0142129832492108,0.0118884816726365,0.0044531748691921,-0.0051202840437378,-0.0128753445648335,-0.0154981246555705,-0.0117152613719254,-0.0028794443969665,0.0075222081604171,0.0152504233912749,0.0170191492399802,0.0118356768605433,0.0014663331839155,-0.0101333615845363,-0.0182407193770818,-0.0191965775194676,-0.0120246054084592,0.0008379849741589,0.0141931711015626,0.022108455491421,0.0206090218742862,0.0097969826238054,-0.0058067531773479,-0.0191445313314994,-0.02397495566409,-0.0179934183074151,-0.0040140535163553,0.0114362698089993,0.0213196672687998,0.0213947985369808,0.0120347013895402,-0.0021780541670136,-0.0147275134337022,-0.0201594209217929,-0.0164266740857416,-0.0056126440081919,0.0071723506015078,0.016152382994945,0.0174539916572886,0.0107782457396625,-0.0005465413303267,-0.011161887873489,-0.0162030274061319,-0.0135602113087975,-0.0047860132914584,0.0057766288562942,0.0131708679626688,0.0141917139295802,0.008783467207904,-0.0001479870208909,-0.0083159878253464,-0.0121704044965303,-0.0104865057831874,-0.004689443087316,0.0021437257112549,0.0069938729564638,0.0083783909071654,0.0067997235501269,0.0039134702661333,0.000875426406158,,,
