-0.0036021806414496,-0.0038894073428473,-0.0038790823026626,-0.0069375490088168,-0.0037984408939273,-0.0016060786576965,0.0041993494388984,0.0113077778323135,0.0123047797584921,0.0038689952215442,-0.0063587234469881,-0.013546803928057,-0.0144809518637236,-0.0022856223878789,0.0065833944025376,0.0122353110948863,0.0107824064452242,0.0021286744021485,-0.0050736517764933,-0.0066014307539981,-0.0062184145446316,-0.0039466678581951,-0.0063645029039149,0.0065962122059886,0.0098242047176902,0.0058730011028179,0.0034442885624769,-0.001051824159103,-0.0070300138790986,-0.0073152447250554,-0.0075717859387634,0.0013962302195365,0.0072957448390341,0.0033701597529181,0.0051580836134572,0.0031905243951387,-0.0024819284298239,-0.0080794562412765,-0.007685559312617,0.0027769331971448,0.0089986634809604,0.0071784786189614,-0.0010601359791066,-0.0070310478862964,-0.0072973513234091,-0.0067086266461652,0.0012331273670216,0.0073285131029688,0.0090692736487959,0.006918494054152,0.0050396520608887,-0.0053908255090879,-0.0121968308436112,-0.009956576737531,-0.0064102548199938,0.0015712678160084,0.0071413515600647,0.011769515659627,0.0071821470783429,0.0042465508586833,-0.0004426707353372,-0.0028307853642986,-0.0107033958945883,-0.0141574583359142,-0.011749111866813,0.0031360484044623,0.0165133838326404,0.0157580206157691,0.0093996763916577,0.001470128835303,-0.007076866374868,-0.0130566111562691,-0.0149310105595082,-0.0083022733660184,0.0041657445751806,0.0123978041944189,0.0143359353257292,0.0048779378875052,-0.0048133606476953,-0.0074676751768818,0.0019035930996664,0.0005000086326841,-0.0023027165319331,-0.0057711017087396,-0.0046356955192863,-0.0002765012872385,-0.0001370621776127,0.0036087572256481,0.0069375179717129,0.0106439492600441,0.0052769785245222,-0.0019884660723983,-0.0087222081909831,-0.0123035296013231,-0.0093228165980122,-0.0037651130783181,0.0043076138219639,0.0083899479964784,0.0101655069127927,0.0091885472959338,0.0043411120997639,-0.0006023763406117,-0.0047145387411049,-0.0113857329499069,-0.0158477777645484,-0.0079264304874043,0.0036164018716662,0.0088707870760911,0.0098641688257327,0.0117208573254257,0.0092942798366914,0.0013254807416265,-0.0070443818016606,-0.0127293489222043,-0.0108320182182122,-0.0076569957750963,-0.0046854557725178,6.771750090096364e-05,0.0100862982678128,0.0151893104119575,0.0167658615407756,0.0106591504678626,-0.0056581571429136,-0.016585691159075,-0.0191459752162162,-0.015986232326247,-0.0049611013228213,0.0086657930308225,0.0180291625376932,0.0180941761909771,0.0085485564246219,7.915330322814353e-05,-0.0099924540504224,-0.00998504872474,-0.0086485302123781,-0.0086550667723642,-0.0024739516485694,0.0067071184143713,0.0078938289431269,0.0059243922363885,-0.0006489069017088,0.0020712713771254,0.0040963392129357,0.0055532504439565,-0.0043908762192453,-0.0125395478333702,-0.004976041526847,-0.0039243632428194,-0.0002819968908332,0.0024476660065391,0.0013866112693879,0.0058377562184715,0.0127324430754332,0.0091262329048077,0.001966382035624,-0.0100178690490327,-0.0181019050751633,-0.008854314943984,-0.007178502756745,0.0023658065004366,0.0134181254703428,0.0108117687410929,0.0081850669200141,0.0087488939314632,-0.0045722818881664,-0.0158684222173937,0.0006206097217938,-0.0031589239951457,-0.0095893789662437,-0.0085095275502458,0.0011685810858208,0.0108612352420415,0.0174334708626308,0.0073189827748686,0.0022220106187873,-0.0053910278793953,-0.0069284585056905,-0.0074553208332557,-0.0138880821314999,-0.0134345138268641,0.0061425497807932,0.0213851770779874,0.0204578240013768,0.0019966879775359,-0.0179978979169619,-0.0100808812620609,0.0097946417785528,-0.0060087098878228,0.0061058916567802,0.0004112664630196,-0.0156966994187095,-0.0038793426641622,0.001093680066389,0.0026934789819597,0.0263140605949942,0.017790766208138,-0.0013487216080258,-0.0172543267484716,-0.0490602596314846,-0.0023077085708292,0.0132122993733506,0.0179754831741689,0.0285669448967102,0.0122677500874411,-0.0085105239045757,-0.0150808629440559,-0.0316324277354704,-0.0178752623734083,0.014469184322455,0.027356170445967,0.0134150825359481,0.0019307922764709,-0.0047705949512748,-0.0055498841455219,-0.0075782138001633,-0.018263470813243,-0.0055674112516202,0.0099733501375197,0.0131843976213614,0.0162269350306276,0.0010781939099297,-0.0017462131501823,-0.0037590515991295,-0.0253531979038788,-0.0128099679291284,-0.0001304185017616,0.0263861158626152,0.0216540889693599,-0.0008065020804984,-0.0126927713275631,-0.0134091481220201,-0.0010823871326774,0.0005402727401707,-0.0049800201996934,0.0072599760730805,0.0099970182640661,-0.0034920328499184,0.0033716268358733,0.0042031059847274,-0.013427944654119,-0.0136498386986032,0.0094099880191537,0.0108487621557642,-0.0001422693547067,0.0042624525003766,-0.0019628016336718,-0.0042243588141804,-0.0040209392895377,-0.0051262190353558,-0.0015099965750941,0.0048747574897005,0.0095506151864302,0.001293445327799,-0.0064475542913923,0.0009807933284771,-0.0045236909281414,0.0065002215022584,0.0071585772328981,-0.0039939818646367,-0.0205939681107767,0.0004109435003569,-0.0050869727762318,0.0265765091160823,0.0145992651651783,-0.0086449737030256,-0.011373741982715,-0.0133217700202135,-0.002622264791439,0.008867160204769,0.0097056950279607,0.0033335431658165,0.0066450446359893,-0.0145838063228753,-0.0175270613440461,-0.0068296286842193,0.0188781484248878,0.0179242320833884,0.0049868207616249,-0.0017821603780918,-0.0064674504654035,-0.0076993625282911,-0.0112605211340986,-0.0053907402965539,-0.0193674151262462,0.00845415240261,0.0335219333440373,0.0285218196698612,0.0017791689667427,-0.014549624352666,-0.0178753575963401,-0.0303939440831594,-0.0089932342549812,-0.0003415771068236,0.0096776332334974,0.0271402692356126,0.032196926156719,0.0090874696162279,-0.0165037367397182,-0.0221022399098738,-0.0193209301748748,-0.0085482900335039,-0.0184047016406049,0.0138045247960886,0.024262288717088,0.0192665925133653,0.0151266259610446,-0.0057304433905768,-0.010574948500147,-0.0076009872466635,-0.0133457505004372,-0.0225433515119426,-0.0029431362023931,0.009317362552182,0.0196560301578106,0.0188997330274006,0.0086047977690198,-0.0027875987310597,-0.0131032419723727,-0.0207682960856205,0.0033900794351584,0.0110450203943193,-0.0015450142278811,-0.0175984623596197,-0.0055013058009313,0.0046314959234429,0.0158949171096169,0.0168917628368791,0.0158835809698621,0.0023825920525995,-0.0257598412599655,-0.0261169726365732,-0.0039289203707242,0.0032754879212825,-0.0023627500184783,0.0017830987737251,0.0212092876563375,0.0212114075428867,0.0093061468938513,-0.0084205249329121,-0.0135051797329464,-0.0189166711843345,-0.0159047672725254,-0.0042310719372963,0.0074977922752159,0.0139178781199894,0.0143352648660655,0.0132134398290956,0.0050826899631867,-0.0107451357552746,-0.0111457663490906,-0.0115104183245814,-0.0088272845304322,-0.0006228140770398,0.0009813325654172,0.0088164500206363,0.0149987107696396,0.0136149205415779,-0.0058627536876102,-0.0083070931873963,-0.006716551729752,-0.0078081287108485,-0.0060253382183663,0.0016697359943523,0.0041098906180178,0.0046952706169612,0.0125511213796184,0.0066195388426155,-0.0035135023722362,-0.0164815429351428,-0.0027630846613071,0.0044672908415014,0.0007178922846247,-0.006088055630828,-0.0049737943989096,0.0021481203459352,0.0116302756433167,0.015367859434478,0.0078483454864617,-0.0070479227360036,-0.016462828777259,-0.0145648722422565,-0.0214582800195685,0.0032157674764437,0.0289522016622285,0.0216593107564539,0.0075429923522302,-0.0033137066180279,-0.0084245420334433,-0.0174419946480752,-0.0138919363401766,-0.0044791063201882,-0.0002625699385652,0.0034019575848778,0.0230424972134254,0.021198814762315,-0.001182350084747,-0.0107960378227403,-0.0141929029276549,-0.0106211647253599,-0.006518631895089,0.0013520803587408,-0.0001716614526735,0.0165329479066724,0.0139988967710649,0.0038839986088769,-0.0048588690201525,-0.0108519095012071,-0.0088530994483725,-0.005997150455601,-0.0018835215637097,0.0055619066494863,0.0083241310049342,0.0058510219673156,0.0059631352583389,-0.0035807592460789,-0.0051417598494847,-0.0044140842225822,-0.0012032862877617,-0.0036154777998038,0.0003923240696088,-0.0021152164721235,-0.0023679858065857,0.0127380446809595,0.0134406202334964,0.0046739271662821,-0.012177320087582,-0.0153897440991712,-0.0059823932689812,-0.0088807445573085,0.0052433453028689,0.0215099468159075,0.0117084341850907,0.0014905955179251,-0.0086224364921755,-0.0053716875478836,-0.0027498846211253,-0.0167824067121528,-0.0068793555367248,0.0077299060892518,0.0109342316081901,0.0104792488753185,0.0089513577505029,0.0076162815028892,-0.0014721993887501,-0.0161018149285551,-0.0238752059773489,-0.0141577733525214,0.0073075553620442,0.0110076224313622,0.0149792914412729,0.0195325526827713,0.0084725121759287,0.0015601520889129,-0.0093029813894056,-0.0240823437670457,-0.031492693597972,-0.0242592563080374,0.0249497608768063,0.0373618433751887,0.0290733561833136,0.0139468862398074,-0.0100626234847693,-0.0311434017728715,-0.025865801848713,-0.0088248812395271,0.0007034303650833,0.0104040477158719,0.0162275300505759,0.0142555169140173,0.0081602250059735,-0.0007338623369619,-0.009407722075079,-0.0068577814341551,-0.0109911250948853,-0.0099534546986041,0.0015886031319596,0.0043520669351667,0.0076620210186466,0.0123339954489741,0.0073298535895728,-0.0066877149872277,-0.0070049684443471,-0.0010567913749151,-0.0011187688069323,-0.0081810484317857,-0.0030951660594099,0.0018253918000551,0.011893372839297,0.0020612454816993,-0.0012671947033103,0.0012714204217721,-0.0020260959609875,-0.0004692837764638,-2.1472179146559787e-06,-0.0023980834046879,-0.0066621108777469,-0.0019410078242681,0.0010862012517153,0.0087026442548176,0.0078818747842224,0.0017647718204713,-0.0041121701483733,-0.0107556072382665,-0.0080314672664906,0.0026142491921844,0.0126117075310767,0.0087651555988753,-0.0024437449118494,-0.011202033770867,-0.0057370166004419,-0.0005222198320428,0.0021367618608167,0.0045049682795217,0.006322323255696,0.0036778280865243,-0.0018742806606674,,,,
0.0110206754553272,0.0137304207145854,0.0079061337671501,0.0013508569149008,-0.0018448622913574,-0.0004635615272227,0.0043613108863706,-0.002514378070783,-0.0009413134752109,-0.0041082021227062,-0.0028587259153559,-0.0081161966257024,-0.0103917037724171,0.001054811266235,0.0143792621033055,0.0129609574460166,0.0100899423481572,-0.0018482952470313,-0.0040341752798648,-0.0061491788000686,-0.0106618758589053,-0.0091778803798657,-0.004494047039797,-0.0007054846892361,0.0104074158248758,0.0131797018537364,0.0094535978709558,0.0037977692292312,-0.0063873154175283,-0.0112232433938418,-0.007274851934637,0.0020940112165599,-0.003321156822473,-0.0009546404724911,0.001741980381121,0.0061594498946543,0.0059920550955089,-1.0556223977448955e-05,0.0018652961805477,-0.0005983925360327,-0.0067424791040086,-0.0065032196393605,0.0032260198281018,0.00314307168144,0.0006974345185537,0.0009872536599679,-0.0001508884265942,-0.001332753726876,-0.0036920827397807,-4.546715893910588e-05,0.0006546692134367,0.0023987968166697,0.0048044642440643,0.0062674494591589,0.0006952611508537,-0.0063563802631851,-0.0086171508969901,-0.0084105549514045,-0.0028493423500037,0.0060608845728441,0.0076288043649838,0.008440449207557,0.0072053241527043,0.0027054062433848,-0.0073547115552982,-0.0104344486586667,-0.0096711481192093,-0.005624126571615,0.0042783928154407,0.0075340210181447,0.0066425412863007,0.0062365872832377,0.0049828806799845,-0.0019682367116106,-0.0103400597154603,-0.004705502601893,-0.0025028162860952,-0.0019863545546991,0.0005663695689711,0.0049411113946857,0.0046408770548637,0.0034568803510937,0.0021800081917948,-0.0023032766327161,-0.0049380451260317,0.0009186263483158,-0.0045894705525154,-0.0149231853350013,0.0159068964194061,0.0116108096245127,0.0006366939391727,-0.0029380668732398,-0.012082133782374,-0.0067283980854702,0.0017156841200829,0.0130074966517002,0.0130561964023066,-0.0001465779702219,-0.0169869741998269,-0.0210779088671377,0.0070057267250914,0.0162923760766902,0.0114132985882484,-0.0018056875939864,-0.0029710401528236,-0.0025783338303042,-0.0144277253190876,-0.0099591960894131,0.0089773470293914,0.0158694951512341,0.007585976440906,0.0001939264641494,-0.0095260563769805,-0.0044648887332476,-0.0111262247322435,-0.0077509270625773,0.0184182237799838,0.0104314006867119,0.0008663323362773,0.0003339484567981,-0.0074037497487449,-0.0072255120167236,-0.0090085527458221,-0.0031293667526762,0.0133467887560012,0.0102811586391998,0.0106436457817176,0.0026812490090163,-0.0196018974099867,-0.0223619882797788,0.0065548349411386,0.0056994545955303,0.0070873641569314,0.0095144361864794,0.0040754239734233,-3.199288511954839e-06,-0.0069801436542817,-0.0007276426472933,-0.0088041524254831,-0.0089532198755842,0.0024505040834085,0.0036448429236406,0.0039761900530896,0.0015942335617613,0.0163001153953987,0.0063094488215126,0.0033112434556001,-0.0129746000503436,-0.0255003535021275,-0.020495474960595,-0.0049634895681073,0.0296532766152897,0.0336566462738065,0.0139218968254289,-0.01558946536092,-0.0218948564118283,-0.0017150694586837,-0.0030726931133813,-0.008764162188919,-0.0035523317583694,0.0107897224341348,0.0043110314686598,0.005644039454285,0.0046646810844797,0.0022149997505647,0.0017593049525586,-0.0067233152454065,-0.0013482992049902,-0.0067218588249545,-0.0166759870345323,0.0129128091969738,0.009916309245568,-0.0069933238923484,-0.0047426144628119,-0.0020317917605289,0.0101474840250289,0.0247354770350118,0.0114409438490953,-0.0130839195860328,-0.0216825954452505,-0.0352746421362519,-0.0182892000008576,0.0152701556062142,0.0365067674431385,0.0325402742017722,0.0209659594243537,-0.0137530493110434,-0.03487539777324,-0.0258408902460622,-0.0124065429507912,0.0111770549757842,0.0115706559208229,0.0024442281673352,0.022439776438703,0.0166583895703088,-0.0137791751679328,-0.0249226073386278,0.0044441148622695,0.0063208232086583,0.001089266484182,-0.0038807555856865,-0.0176170016251617,0.0004890820400065,0.0209089167146846,0.0140229711146705,-0.0094277720653202,-0.0120647793318326,0.0022991576950449,0.0019648221593343,0.0065644592120649,0.0009846935108514,-0.007661402028545,-0.0080198583277775,-0.0109363203232588,0.0143019877862268,0.0155741083265761,-0.0033948165577396,-0.0057857538985829,-0.002381777545067,0.0109100998497624,-0.0078901461842034,-0.0135165612942956,0.000854074543132,0.0077514881986835,0.0019077904927423,0.0160982284640063,0.0005263317863295,-0.0234883700862583,-0.006946693852118,0.0057787164320211,-0.0024577824723662,0.0203450190458819,0.0111535821164785,-0.0074573011123335,-0.0154370434334669,-0.0084003217525407,-0.0002890309958489,0.0075955541781894,0.0091366226955672,-0.0076187202840857,-0.0076453294054948,0.0110251318619427,0.0116580918001762,0.0070873953036221,-0.0152933478952574,-0.0087949835714195,-0.0120985318458591,0.0025393280558966,0.0025820849535756,0.0120541817542555,0.0047380099072718,0.004123274275717,0.0055882183759137,-0.0108666108848958,0.0043341944002131,-0.0077454189772043,-0.0217623373944315,0.0001897550720967,0.0156422630013998,0.0121045189796624,-0.0031265865902126,0.0013194990087519,-0.0046142730712718,-0.0034680382834688,0.0124892854320845,0.0078936874540918,-0.0039472084389281,-0.01643687517995,-0.0242031802109642,-0.008649890344605,0.0148960791253848,0.0226552414539594,0.0215636390877722,0.0110094090827739,-0.002282527987347,-0.0308019393866323,-0.0220961495640835,0.0105781962273114,0.0038945603722636,-0.0150106637705382,-0.0050755785065344,0.0054676701303079,0.0359152844082293,0.0280338981517133,0.001181195598821,-0.0202252169731248,-0.0409726947606982,-0.0270936220666273,0.0079806693820117,0.023041963633075,0.0163233544727803,0.0154170124337608,0.0039169917900049,-0.0124021914088699,-0.0074304893155466,-0.0016915504295916,-0.0016979994584373,-0.0084469247453114,-0.009170773288351,0.0043641896661635,0.0121180941067751,0.0147688977940528,0.0026657741962159,-0.0099351621147592,-0.0095870446511032,0.000856786658349,0.0040129336207201,-0.0073229040268782,0.0016028588425427,0.0051316639013423,-0.0075259739000685,0.0040298071510242,0.00801951143775,0.0055227483887912,0.003313163479023,-0.0114954132012292,-0.0110164519249669,-0.0104894645861358,0.0076886574363403,0.0104359572378935,0.0069619843214472,0.0020189339790768,0.0060185802552666,5.836674167508052e-05,-0.010269708517218,-0.0215304892732917,-0.005992018519666,0.0152181439856023,0.01427917675426,0.0024333682386837,0.0013029028944162,-0.0046401573984521,-0.0044762817276071,-0.0053425710569256,0.0032968789254259,0.0064070929818504,-0.0015448307349108,-0.0053704874145534,-0.0112288523475573,0.0022546598586343,0.0085201093119175,0.0064566658835839,0.0075483182782242,0.0050096892559306,-0.0039716757237623,-0.0145517054073463,-0.014758516515356,0.0009421766466454,0.0030436032153418,0.0096486061231067,0.0145340238977599,0.0062038437188652,-0.0056187065690807,-0.0135057978398679,-0.0090123834495716,0.0026051509317113,0.0041936796214201,0.0065714942572677,0.0034396303332881,-0.0034172761037703,-0.0077766402371787,-0.0046445348029864,0.0055058551418416,0.0097526947115252,0.0053900185059114,-0.0029872429917428,-0.0068458393901271,-0.0054402961316464,-0.0064687989286321,0.0012105515149329,0.0079056679666414,0.005916869215697,-0.0025502101558389,0.0014094470930764,0.0050571259228434,-0.0007432477233155,-0.0105142453361515,-0.0007704559116468,-0.0034584564441162,-0.0030194449090801,0.0064353773630673,0.0070600994546072,-0.0006979016049524,0.0037657608715131,0.006685505334088,-0.0057006021924609,-0.0113893922349386,-0.0027728752738883,-0.0056421917842326,-0.004076298744035,0.0106090783486478,0.0163875111108287,0.0114441821271299,-0.0057235831033279,-0.019413069978898,-0.0095221428632417,0.0035122597183358,0.0064036728453603,0.0078087273707534,-0.0030819724262653,-0.010514203022144,-0.0002398313280603,0.0095596547051743,0.0089557551029917,0.0089421533234122,-0.0019904527959683,-0.0240350401446788,-0.0115531852150634,0.0029562499191252,0.0078365960133822,0.0072446546140024,0.0119893075621069,0.0049333175578829,-0.0106009622589662,-0.0060210944893386,-0.0001727845843075,-0.002893184777256,-0.0001911712647031,4.2941134095133456e-05,0.0007895403351233,0.0007545007749904,-0.0043052017567187,0.0030759105468096,0.0160209516066266,0.0077552487114771,-0.0097902456374382,-0.0208483321560414,-0.005602673081203,0.0042328068531726,0.005502868929945,0.0112811233371704,0.0045117004097913,-0.0024644742914997,-0.0012339345370439,-0.0086387885982934,-0.0003118166850599,0.00275171616929,-0.0051328318691725,0.0007376073216531,0.0073916982059224,0.0020801409337152,-0.0033954238050184,-0.0009255885204313,-0.0044493580845798,-0.0064741108080577,0.0154301814999717,0.0079049645294603,-0.0062141905177832,-0.0069127201324403,-0.0023920722945757,-0.0049177445781945,-0.0089084854385599,0.0075741254892213,0.0131258325310061,0.0108522565237685,0.0067270713248782,-0.0073629000108551,-0.0267283135651303,-0.0103222327823066,0.0110575520865902,0.0095875165012854,0.0070035717929881,0.0006222685513124,0.0029074018153174,-0.0033589240603298,-0.0060627211881239,0.0010167957085061,0.0006152016313031,-0.0042937562327902,-0.0080027366465371,0.0047623649198654,0.0104651510472854,0.0064294930003737,-0.0005693041762696,-0.0094125704355358,-0.0033164034246545,-0.003519866436153,0.0009417408740051,0.0041892956257553,0.0043269725196456,0.0033228094692438,-0.0023670779370175,-0.0043975232297429,0.0012888833580912,-0.0022399315088467,-0.0021858980069074,0.0022783160252116,-0.0026598970270788,0.0058763155204931,0.004243327541776,-0.0023933065331898,-0.006685150925192,0.0005534362158156,0.0013029960198718,0.0041746915504512,0.0006556750055614,-0.0003584357548584,-0.0059616844849773,-0.0023448683379443,0.0002256301101029,0.0031607944449045,0.0034851216483693,0.0013295305049875,0.0007427000226441,-0.0009338285413331,0.0006947971023906,-2.0922604192875216e-05,-0.0073088916466894,-0.00486673167241,0.0034184196993608,0.0024526105997868,0.0040631943068471,0.0006872795392579,-0.0022307278129611,0.0086266232093416,0.0036534723972859,,,,
-0.0168742389251066,-0.007970457152963,0.0079798294908711,0.0186843921657908,0.0180662605500484,0.011229110527159,-0.0027801851165577,-0.0167939318434855,-0.0110660099302775,-0.0061431577788444,-0.0023072108668979,0.0006139948797976,0.0045099495202505,0.009327149711709,0.0021792366110251,0.0087295631947087,0.0026422786945043,-0.0036435975015565,-0.0084231282143155,-0.0138960970752781,-0.0067749539792144,0.0063549819923139,0.0110005748733156,0.0076796715779384,1.149466522393252e-05,-0.0068629982526423,0.0037931615092041,0.0060059716956457,-0.0026259563950597,-0.009061347336125,-0.0118789317965289,-0.0006150936547269,0.0059192784479274,0.0087150103438487,0.0093994751150886,0.0025790878985763,-0.003533008378603,-0.0028684816196157,-0.0057057414984638,-0.0087218467492148,-0.0072778948649475,0.0022307972579319,0.0080806699380541,0.0108682375030507,0.0099571703159355,0.0012578139241894,-0.0035763006483374,-0.0115333738910213,-0.0110431776516417,-0.0113700540000775,0.000490518785891,0.0074168703519181,0.0164904823367294,0.0167573166767647,0.0064936333437676,-0.0074653384804057,-0.0143897262148789,-0.0189523116877545,-0.0100968913964014,0.0013601546876805,0.0096178145613989,0.0124007054478251,0.0137965588895252,0.0080744771844714,0.0025522160789048,-0.0078498805266243,-0.0165807334756648,-0.0167535588972687,-0.0092835633030361,0.004849086031668,0.0116175889795618,0.0151107489113701,0.014090189434353,0.0055457402684946,-0.0024121225185685,-0.0133963574135842,-0.0200554118907237,-0.0122596282906908,-0.0034991413220975,0.0130279804841253,0.022307387268566,0.0118576643308311,-0.0049701190157989,-0.010189034685638,-0.0026717114565063,0.0005034719720113,-0.0061013481240797,-0.0061067195968412,-0.0033014522858736,0.0031882877857396,0.0060912013729713,0.0106031921362138,0.0091998427741514,0.0019139419058879,-0.0187050603065815,-0.008926858219775,0.0024934308389128,0.0001686601191845,-0.0001839660901152,0.0042313103101365,0.0041322054790578,0.0092398623614119,0.0005706880768962,-0.0040569637250939,-0.0160447698168973,-0.002390164860877,0.007763159649134,0.0078690538158671,0.0028014820809228,-0.0159916220140938,-0.004138126251818,0.0194187195213851,0.01208218968129,-0.0034297393189181,-0.0157249621435776,-0.0142314526543897,-0.0040277635200421,0.0045445338950826,0.0156991672265481,0.0144950280607093,0.0033961473825943,-0.0131450234555644,-0.0142147853768605,0.0077896037170423,0.0053930390438449,-0.0058112402677714,-0.0076241825886255,-0.0097187235964537,-0.0078220913636008,0.0238901697799229,0.02463691025192,0.013444127898783,-0.0071278863964162,-0.0207011174426087,-0.0264323241944724,-0.0192150177396709,0.0078431174416843,0.0101576801785041,0.0238377867287912,0.0167547846699345,0.0063907648078447,-0.0033659799642413,-0.0130954064472145,-0.0088911734946785,-0.0051273799418751,-0.0135123204090499,-0.0248868969923762,0.0029089420743901,0.0291079271950445,0.0326005780138074,0.0161798671146175,0.0055291620967869,-0.0151898310692475,-0.0299156416471319,-0.0382820386900463,-0.0095301622524518,0.0108236343707154,0.0306880589419116,0.0291086890961523,0.004396142163086,-0.0126513599569504,0.0074572492663997,-0.0068208010656748,-0.0150841350504324,-0.0105874872099365,-0.0170045122009983,-0.0060814459797752,0.0207690634327285,0.0150583689943414,0.0178376811287808,0.0064095058419572,-0.0120644167431357,-0.0113528432969668,0.0048607081734269,-0.0076674844341299,-0.0181718048709635,-0.0044472274884319,-0.0007093983803855,0.0177414998411996,0.0170664469578339,0.0149365549330329,-0.0031228074940929,-0.0223359503223853,-0.0155475822657551,0.0079576497998243,0.0036671844336157,0.00291597721077,-0.0059361769066069,0.0028066033824546,0.0066467921873919,0.0029578621333579,-0.008363089894353,-0.0070254476069569,-0.0001854896879619,0.0076370255934797,0.0133533348302389,0.0153337286026084,-0.0010041039400435,-0.0232121027863124,-0.0379791307807366,-0.0284399041408653,0.0357720630448401,0.0473528625208146,0.0237850354936868,0.0043036747805193,-0.0170379487340552,-0.0344619041212933,-0.0486791286651556,0.0007684409108151,0.0405238947804026,0.0329904938079435,-0.0004825475785668,-0.0072746464294133,-0.0012541496334281,-0.0145044976506561,-0.0049645233560532,-0.0037440529851506,-0.0070415369597262,0.0153863513938151,0.0162482982716006,-0.0051311229220336,-0.0034654515334771,-0.0113239970441225,-0.0075470772520925,0.0007407599579297,0.0203593507559928,0.0026516132398372,-0.0034112611127858,-0.0190807102150698,0.0267825619057614,0.0008800138864434,-0.0349153071924775,-0.0045738129930547,0.0094120531260046,0.0209835238334877,0.009138517301476,0.007636455779667,-0.0079678541444564,-0.0222167814295624,-0.0187792784719248,-0.0033909862663879,0.0281630785363677,0.0195792380593547,0.0004592963536791,-0.0069077993090947,-0.0109890247179259,-0.0130269415239531,-0.0126203391098174,0.0093978924434328,0.0173067267729128,0.0133142373414855,0.0028742117889312,-0.0020741240219183,-0.0210426564678707,-0.0047022405318062,-0.0050363747777219,0.0020541785622908,0.0077199198825084,0.0013214773152489,0.0001145134587711,0.017382328332798,0.0138397849732387,-0.012906367476386,-0.0315394108180778,-0.0012391613845141,0.0148141369501682,0.0022886100531024,-0.008212490532728,0.0026705941249041,-0.0005863319232228,0.0056260818373638,0.0165385164942443,0.0093705968133429,-0.0122378314326761,-0.0202193055038066,-0.0055237655195856,0.0024842891457816,0.0032558598319461,0.002628123465269,-0.0015307405914661,-0.0039342386124917,0.0050714176345,0.0225337595600817,0.0129435492154988,-0.0033056307278763,-0.0193481759988589,-0.0293685959662594,-0.0187081293669273,0.0097683243006611,0.0256569316156246,0.0194769191736971,0.0054114417349618,-0.0034539641340599,-0.0087072152341985,7.367672647041036e-05,-0.0034089844012244,-0.0107676743763147,-0.01095933142733,0.0031585670043775,-0.0018962286692559,0.0033522273634551,0.0165781356493217,0.0168118771285499,0.0061443579921019,-0.0039501217523649,-0.0126938182455763,-0.0303339471800172,-0.0287528986481161,0.0217906987412019,0.0353425370801157,0.0167721055421317,-0.0066851055201729,-0.0052288793757598,-0.006803835994881,-0.0152653896142151,-0.0110880894368701,0.0066085017695098,0.012495082219663,0.0040542468612404,0.0038644676806243,0.0059057689296415,-0.0051304060228395,-0.0135347573347917,-0.0064905566253957,0.0056816828801895,0.0044968620372421,0.0021273040079809,0.0058399401196978,0.0045083055388907,-0.0044389669581256,-0.0152754085237076,0.0002482669672652,0.004955182321202,0.0094645713320758,-0.0031405473909456,-0.0062934622900515,0.0006771796383392,0.0075177751307641,0.0039621825570558,-0.0025062785213696,-0.0064898268569575,-0.0085747125944118,-0.0042517761401245,0.0079568820904549,0.0068743558843027,0.0114936541101037,0.0036552448564924,-0.0061732848699111,-0.0187169767441604,-0.0095051517788408,0.0026120749311737,0.0119531328301271,0.0099544091062472,0.0065104337449065,0.0002889085661724,-0.0056004868662243,-0.0150906943929064,-0.001510465363462,-0.0008019475620469,0.0026399967973042,0.0043226835010171,0.0039143396344526,0.0053632560149846,0.0052613011073647,0.0006741339996661,-0.0080998205389209,-0.0130212891256687,-0.0029281396162073,-0.003678622158752,0.0043665714773818,0.0106798240821014,0.0115013475937157,0.0083293892385199,-0.0040512043133478,-0.0125602020374456,-0.0107409617754824,-0.0116483869570425,0.0051718653542042,0.0072491661471592,0.0098835537034815,0.0055169811426845,-0.0002525995707373,0.0026155982781377,-0.0008342141110543,-0.0076352235388641,-0.0108252268885785,-0.0050274165245899,0.0013123957710968,0.0030035841126539,0.0067726379661761,0.0105181639141526,0.0065697007544954,-0.000868072172472,-0.0041418316982017,-0.0047053285366537,-0.0146301306424284,-0.0111379971418664,0.0024962741479698,0.0092002846907735,0.0081481584072772,0.0108137014702433,0.0107860044069543,0.0035013364298312,-0.0113710904594419,-0.0137517866875863,-0.0157042614270377,-0.0130949093789552,0.0037229765607239,0.0160668781994037,0.0182995308153512,0.0145808268171026,0.0033539702610285,-0.004754849361024,-0.0089170377531385,-0.0175449789310543,-0.0187494727782298,-0.0106361207781512,0.0060662667774257,0.0173660723228641,0.0220521640625891,0.0188467279715573,0.0046358505460098,-0.0089909989837004,-0.021637886077298,-0.0170244785577972,-0.0111639113850728,-0.0039301549279253,-0.0006794452248011,0.0155071878945427,0.0221503978557498,0.0226396816172119,0.0056165875124779,-0.0095628849666468,-0.0219536628591792,-0.0226340303506712,-0.0153760662329381,-0.0005587461879492,0.0151462771780891,0.018727214215872,0.0155961286113065,0.0088934348397593,-0.0031547414323947,-0.0087513903958405,-0.0117584213358542,-0.0132491946181825,-0.0075524726957703,-0.0008645676350882,0.0045800954101727,0.0055403069338922,0.0163727291666021,0.0174401829809069,0.0058741538889724,-0.0096563257709322,-0.0193896457431362,-0.0180802795217781,-0.0120168920959656,0.003640405201456,0.0139957498838468,0.0163457662373111,0.0141753798602674,0.0070728166235274,-0.0058201875850776,-0.0124431731248102,-0.0169521563852345,-0.0093966596510359,-0.0009717380245975,0.0049596574468825,0.0109730184997703,0.0112684275465557,0.0060773194161724,0.0019647572972837,-0.0051166598726688,-0.0058841987455919,-0.0111846653064799,-0.0112579095947537,0.0053108528390705,0.008495179303351,0.0076775317345916,0.0035949829837779,0.0031231406418193,-0.0036936639211984,-0.0062684224802196,-0.005883632739918,-0.0051718682562387,0.0025105260099173,0.0055276310540376,0.0068188775057237,0.0060066566464393,0.00345183962202,-0.0057071715150577,-0.0108101260044638,-0.0124979466860752,-0.0023925332143727,0.0049822187236393,0.0124819966053726,0.0139306225395724,0.0065748271548982,-0.0060558476440083,-0.012129605278658,-0.0065959113469251,-0.0072971295449179,-0.0044840806041088,0.0049382662986379,0.0086268187758668,0.0069675263744545,0.0093345308496933,0.0021607118482759,-0.0076384325803119,-0.0081309627595925,-0.0077135888580678,-0.0064648739250832,0.0038761598961404,0.0064288766375547,0.0067203859333657,0.0086248362602999,0.000733884106915,-0.0078278549102531,,,
0.0020103334913429,0.0112335905052865,0.0139469361114895,0.0058959830132236,0.0023295393236989,-0.0010559776017501,-0.0071021944865445,-0.0142819815159407,-0.0090538898640025,-0.0024945474170896,0.0040932228224405,0.0107619419064971,0.0113302993213422,0.009320884594709,-0.0011984869223339,-0.0120226663326099,-0.0068263036273446,-0.0042466694546429,-0.0007110345485427,-0.0001882222902874,0.0043206519685442,0.0028674480190191,0.0010543153688801,-0.0010768516512627,0.0048273005782784,0.0032118166638683,0.0021216081982856,-0.0036547350218208,-0.0052139875283316,-0.0128563269332713,-0.0020026396274098,0.0043938338205113,0.0072948885918118,0.0070562067187767,0.0075440334814307,9.876569320467104e-05,-0.0064421617068416,-0.0067504419294009,-0.0043478515229897,1.068628679018745e-05,0.0024617204130143,-0.0026408687674065,-0.0027994169095456,0.0047946244703386,0.0040524212648614,0.0094575541153996,0.0027753704307136,-0.0041589962462094,-0.0062640552861402,-0.0039121305700973,-0.0058479676079902,-0.0059984204978377,0.0003958717585352,0.0050022215430781,0.0078592827442551,0.0108046305823525,0.0074486779665292,4.209245472155525e-05,-0.0066553651695106,-0.0142197757628183,-0.0180191567938978,-0.0094975946424127,0.0132411474307541,0.02081317530053,0.0131806704238044,0.0026137966029711,-0.0033568614937551,-0.0113320337054173,-0.0103116698205422,-0.006409434351705,0.0005403533045815,0.0002347996329663,0.0056545949077766,0.0080476896725764,0.0035205558640222,0.0015440561482841,0.0024792222292439,-0.0026772264118678,-0.0058342409645097,-0.0044503709074617,-0.0083701358427067,-0.0010661826938128,0.0024725343019493,0.0049017820806124,0.0092932786073073,0.008796676552958,0.0038056036107178,-0.0014872925661256,-0.0131278351137963,-0.0202662223667583,-0.0105507917827144,0.0124599921806173,0.021564821153944,0.0104154814416919,0.0005999443748097,-0.00657585655282,-0.0141589175128105,0.0020382024402635,-0.0038747068926026,-0.0049890957493377,0.0059681638455572,0.0004045270678412,0.0036433178355952,0.0046775166912885,0.0090944460908746,0.0010534946577404,-0.0046742311229536,-0.018743179322546,-0.0129745776337319,0.0100463980848269,0.0136326636261088,0.0077088825653364,0.0018052407925593,-0.0049342214863293,-0.0093501467390136,-0.0021677614316814,0.0037979555954107,0.0047245313399226,-0.0060060644517695,-0.0009622441407443,0.0112474926879483,0.0010518934887382,-0.0005904471527902,-0.0182555832754353,0.0007006530609831,0.0020115128496592,-0.0107600925826859,0.0186499696250924,0.0226835409321912,0.0046441451272341,-0.0091922204604424,-0.0176838373378447,-0.0179370685786232,-0.0060510706290724,-0.0033754126406387,0.015429731204328,0.0192062093341506,0.0066073012747086,0.0077518331277964,-0.004692628817214,-0.0067831106852534,-0.0093408298487485,-0.0074537794764573,-0.0089424363665655,-0.005718983461155,-0.0082060597962807,0.0168749860368818,0.0243389045036805,0.0172702885141072,0.0051196692313416,-0.0102198423454844,-0.0281817676018749,-0.0185812754263234,-0.0040006675700201,-0.0024257060254405,0.0150307651802174,0.0262566162197216,0.0177294546807795,-0.0023384206154812,-0.0237314091256455,-0.0266140742498454,0.0049374345723948,0.022605957648014,0.0098421802536416,-0.0133745617083538,-0.0054667135948982,-0.0042843864113244,-0.0026482521031365,0.0043009188406763,0.0154471641713894,-0.0017770934551581,-0.0038915392578496,0.0047537164444005,0.005051837286044,-0.0079980145001019,-0.0161464903096706,-0.0049806504377294,-0.0019255665955695,0.0021512690812259,0.0192364238643175,0.0195136062090093,0.0057670707994715,-0.0156374325153898,-0.0177317840704971,-0.0033521205879119,-0.0040816366992292,-0.0112761083707671,0.0093392996134799,0.0113523141108754,0.0157411274730928,0.0152503681793746,-0.0032879269714091,-0.0287822396972446,-0.0146046681521612,0.0021857553326712,0.0078466846810574,0.0142984679205984,0.00565344704542,-0.0095787120538327,-0.0104022280511856,-0.0019101778935329,0.0102009028111615,0.0092414226072457,-0.0019935507573476,0.0054898699738618,0.0057492990961493,-0.0097242826999385,-0.0455656606628696,-0.0086816348791676,0.0272871912413964,0.0391490783974894,0.0189985515103809,-0.0033230837108949,-0.0244191747907231,-0.0173141169867675,-0.0222334719357651,-0.0119463060635895,0.0015698683239047,0.0426564654748927,0.0354320452392237,0.008777009979216,-0.0223635712944229,-0.040522956175661,-0.0321755579952601,0.0075667775461284,0.031895522391796,0.0322728846809192,0.0038255600802435,-0.0165430677266246,-0.0145841367482979,-0.0074730758915471,-0.0024986436381661,-0.000305082971157,0.0054628805470663,0.0129949415327004,0.0079474449944317,-0.0068559886689416,-0.0130493150131354,0.0078776656034907,-0.0043045332309473,-0.0113519123406153,0.0046271609900994,0.0164966055115253,0.0069941106208429,-0.0049462802584961,-0.0184767292585572,-0.0052864372004872,0.0157884518152008,0.0028184815646687,-0.0129495303389052,0.0028379064783869,0.0132353537798734,0.0040149163799238,-0.0101593443260974,-0.0028348636421172,-0.0048028773501914,0.0010519717743702,0.0036193769982024,0.0025690445312948,0.0043059777463235,-0.0045744768734838,-0.0139832306094461,0.0007293380550671,0.0154509663739358,0.01953353398905,-0.0007859943381413,-0.022248741067075,-0.0150711484678712,-0.0064145230971001,0.0126438385757595,0.0100181761485183,0.0010219206041767,0.008170682170885,0.0004004311632022,-0.0062756007453986,-0.007170146204126,0.0046852463230902,-0.0028611161784168,0.0033322762045934,-0.0039109349432073,-0.0114967572218147,-0.0034264089531846,0.0101842744978771,0.0188508956403904,0.006675525872927,-0.0111925965607637,-0.0032960937325119,-0.000980384428379,-0.0041093782716249,-0.010403154975879,-0.0119311737766263,0.0104112887970682,0.018120242203147,-0.0015281220775585,-0.0006963192798784,0.014078742843038,0.0028436525096572,-0.0174369663266915,-0.0129277786083319,-0.0028096331551327,0.0003137402408869,0.002810811823722,0.0003190584187671,0.0047627141470018,0.0162488635445106,0.0112901118709587,-0.0020031380235757,-0.0147727546406519,-0.0151068877687644,-0.0044120402117346,-0.004629452699156,0.0053950621383939,0.0052921177035001,0.0076927207029246,0.0078807369014418,0.0139339986516652,-0.0014527022186653,-0.0162920432227141,-0.0080352356013706,-0.0079155212164593,-0.0142700425624756,0.0042169785424101,0.0202745980726589,0.0182068359869325,0.0073096404289359,-0.0122168288101118,-0.0132561356615368,-0.0089823323020168,0.0008574942077598,0.0030377762737713,0.0047184545370926,0.0050771612698303,0.0001166167644812,-0.005183483361826,-0.0002845321433605,0.0024394528568417,0.0019119541099925,0.002119608980036,0.0003633102974076,-0.0037234773659673,-0.0073798476428587,-0.0078903158760997,0.0078856302787122,0.0082717040611879,0.006256973784934,0.0002739459909615,-0.0036699843854742,-0.0043620212337198,-4.095246000643306e-05,-0.0062764126788527,-0.0024206201923995,0.0017316313599894,0.0047590667649183,0.0014797547868187,-0.0021170994252817,0.0061425993263454,0.0109948447483533,-0.0011014783483662,-0.0108451220618014,-0.0108013088347498,-0.0056461519825555,-0.0035596829704162,0.0081690750530638,0.0090514625615139,0.009077416905868,0.0057668812687111,-0.0030232258705744,-0.0084915067130223,-0.0044799391433463,-0.0032029688070435,-0.0022173165851389,-0.0004119477227793,-0.0011174686036915,-0.0021692114308675,0.0011079955635975,0.0150310784834826,0.013864953829779,0.0016009547302236,-0.0104080071195651,-0.0120119281024716,-0.0157804029649932,-0.0003077344897705,0.0020733060616175,0.0006746177433578,0.0124759720831897,0.0161271779187569,0.0098238526168508,-0.0039759359035964,-0.0105384548103721,-0.01636803188604,-0.0101170552679108,0.0007130671177875,0.0050571560964841,-0.0007772507304013,0.0039299550142866,0.0126133487814741,0.0128168585798775,0.0140107645228133,-0.0011574447864442,-0.0202210703390551,-0.0379923435726033,-0.0189243806904617,0.0127742253655863,0.0290818721816048,0.0248516385281452,0.0021272666502884,-0.0031248262612902,-0.0023488028451798,-0.0045305068089711,-0.0077600479484884,-0.0133867802770414,-0.0178454415511068,-0.0098159402835036,0.0078496880910963,0.0285471880037186,0.0297499191804897,0.0104116614537362,-0.0036077600343223,-0.0152026903944689,-0.0279977910062552,-0.0268267543338528,-0.0285056149435766,0.0250932368311564,0.0447011079796054,0.0314243221441829,0.003967182340696,-0.0217676251256645,-0.0181900456308592,-0.0123455799025606,-0.0070674423452278,-0.0008055316488712,-0.0016302199796287,0.0074432486511753,0.0164196366489083,0.0087441949363806,-0.0004452220211548,-0.0002110911033441,-0.0042874913033669,-0.0090322950592421,-0.0074146729294047,-0.0036660778646517,0.0030316139052558,0.0010750671559027,0.0040438384165865,0.0040666346568548,0.0034728218082492,0.0026946923001466,0.0047506142071257,-0.0018862712112616,-0.006998981965294,-0.0101343161850482,-0.0079593805843717,0.0029366882043605,0.0094066858948771,0.0072718354109614,0.0009967169822956,-0.0034710121640751,0.0020958248696272,0.0040017855593973,-0.0014827558215884,-0.0082206297812815,-0.0047523647542334,-0.0025448303756429,0.000324087909877,0.0068093833102222,0.0071006387396419,0.0001183095714488,-0.0052892025887355,-0.0017893915183826,0.003291994804157,0.0077782803722159,0.0003983564198447,-0.0093967694572808,-0.0155946795018704,0.0012736003425335,0.0076803828975163,0.0057610393834984,0.0006475159040723,0.0085933195443612,0.0082249479873681,-0.0018267403530764,-0.0129254531634455,-0.0127832539624465,-0.0024873251270363,-0.0001388558050719,-0.0005197503431975,0.0097853054721738,0.0113966096316786,0.0099080681047343,0.0021466398115233,-0.0056655278086182,-0.0159591821763391,-0.018501877264532,0.0031586912509169,0.0097303074043096,0.0057031283637947,0.0042503068543807,0.0076668207298185,0.0019856186507771,-0.0024275444528571,-0.008916541045887,-0.0074083092822087,-0.002814817539961,0.0024496235732366,0.0044118281281608,0.0071443393652914,-0.0003723782976157,0.000360231056878,0.0022397621391809,-0.0046208126596451,-0.0052943654677959,-0.0090473379572002,0.0013349714639954,0.0096749518100974,0.0115784412975654,0.0019053008375699,,,,
0.0102638672107644,-0.0003518748775726,-0.0074660506675439,-0.0043163475226784,-0.0062444740806316,-0.0038987650405474,0.0017095680498653,0.0046760868016261,0.0060350766926624,0.0048830141633093,-0.0023563722868849,-0.0028122965819854,-0.0085084874941519,-0.006587930137021,0.0082404226457812,0.0085589293346115,0.0038001119525352,-0.0028596763482926,-0.0087439426331715,-0.0003220512336494,-6.350384330356053e-05,0.0022691676639067,0.0019380525891944,0.0012338182376586,-0.0029570074761652,-0.0043270671090339,0.006399934548211,0.0021308726238378,0.0026580628129065,0.0011621799953232,-0.0082357998617094,-0.0089743118302505,0.001329553887088,0.004674444626966,0.0060947430899236,0.003700618225507,-0.00050631452649,0.0006409800700512,-0.0008945100164459,-0.0046493004097459,-0.0044419461995393,-0.0042398668188693,-0.0012974906340503,0.00364822612213,0.0069545129834986,0.0081054389724819,0.0049351489779288,-0.0039917506775943,-0.0127533327846985,-0.0080433421657813,0.0008169096714933,0.0057395204732503,0.007937074932264,0.00298001350496,-0.0027020246497674,-0.0065032373553794,0.0027684020966373,-0.0001938128758537,-0.0093502435596452,0.0023478865800426,0.0078452196115385,0.0159307253768473,0.0070085334893882,-0.0079623614219433,-0.0349888767421348,-0.0351477683506857,0.0308208801382172,0.0375500113266713,0.0221971490614312,-0.0070918004668682,-0.0198254526433459,-0.012738048026624,-0.010219641192335,-0.0077734210257535,-0.0025446371543845,0.0128137324053971,0.0212240436154405,0.0176610764968844,-0.0025959989124729,-0.0197276668009176,-0.014628354439756,-0.0051699255942568,-0.0013427224279829,0.0048914971633079,0.0105025006798651,0.0057957912091179,0.0066482075818052,-0.0008765801191929,-0.0053141903527919,0.0001043110688548,-0.0078531939108293,-0.0173926789212539,-0.0025282286543921,0.016925203424267,0.0165532534756975,0.0040040029162957,-0.0058244928264569,-0.0096348439363287,-0.0012724952003012,0.0004472348189643,-0.0027729134898615,-0.0085899679384355,-0.0009021712693517,0.015150027878354,0.0106573671092764,0.0062502485697645,-0.022376112906867,-0.0212655395049292,0.0178585412913554,0.0173735905213255,-0.0002746939394221,0.0028819008200175,-0.0099903938570347,-0.0137992547328031,-0.0007107400994747,-0.0006858566351258,-0.0026090659505232,0.0057476661984138,0.0178355508934901,0.0193145510080431,0.0056077116569147,-0.0126115676201154,-0.0281506455986339,-0.052584478705651,0.0100249589175862,0.0441553922682047,0.0298516669240941,0.0119042950052454,-0.0045486745860113,-0.0189437668718679,-0.0255223065991912,-0.0187066386488099,0.0027175563388332,0.0239719964678858,0.0156496377044279,0.005677620138721,-0.00517969112129,-0.0144389906629573,0.0014377669824375,-0.000456420358713,-0.0036461714523922,0.0003581870664041,-0.0025166216966678,0.0031273850723721,0.0133990626057808,0.0067252916374467,-0.0016429331038482,-0.0205575599039162,-0.0108499755249127,0.0008460844088499,0.0131253669760886,0.0132738421935727,0.0026538879976347,-0.0029306703661174,-0.0246991807928348,0.0020920519880766,0.0196651238944804,0.011649561838092,-0.0069113211918016,-0.0112607797952849,-0.0114907185980714,-0.0154712160177474,0.0108643460608736,0.0136350813726281,0.0099392210343427,0.0070374618706614,0.0170640011262555,-0.0086501828356797,-0.0239459132661905,-0.0203068648818908,-0.0075171603986593,0.002948312235449,0.0083549760820445,0.0178486848567111,0.0216123390247005,0.0180193445672664,-0.008584434288564,-0.0352466142314827,-0.0180639338497208,-0.0043119794005033,0.019093431682067,0.008531384288716,-0.0089986040568465,-0.0102030792103119,0.0233443449135187,0.0231139453778404,-0.0079610764408977,-0.0138089028747395,-0.0185777950168213,-0.0013818842985551,0.0040209723753742,0.0101923416419363,-0.0017781993671707,-0.0093166010192256,-0.0005092531770828,0.0119106735025653,0.0186243566591462,-0.0017006083570576,-0.0164329237143321,-0.0146573816265506,0.0046200292408403,0.0057773715686391,0.0005171992276307,0.0035196077803221,-0.0024613026271508,-0.0103022812874334,0.0129391574579779,0.0014256784931513,0.0014812047560868,-0.0033718220489795,0.0074718367127123,-0.0065765568350659,0.000139530088688,-0.0086748810715063,0.0010262439010793,-0.0085489102422957,-0.0098335975717627,0.0207017796453551,0.0190094413772209,0.015218166899019,-0.0024432259730519,-0.0286717532459201,-0.024801107071063,-0.008332234521923,0.004942199506189,0.0391976616565115,0.0143163603256929,-0.0191966976475469,-0.0065542757764172,-0.0044114480200578,0.021148562426395,0.0072257638272849,-0.0282479052603686,-0.043668066284256,0.0012504647509327,0.0530612089417702,0.0368517729433206,-0.0069296914051457,-0.022668611775811,-0.0272661748638132,-0.0021771958185114,0.0042025491932528,-0.0066012819014371,0.0011782351773859,0.0182705063383867,0.0214613225453874,0.0115390086994436,-0.0170296559477278,-0.0304634103403,-0.0226225608006287,0.0147576433570349,0.0314893494949542,0.0102696807875207,-0.0023686710422727,-0.0211189040035193,-0.0271349579528517,0.0089862895747469,0.0291670196453804,0.021726315869254,-0.0078389271045765,-0.0210560393650102,-0.0121097787073575,0.0005941660634995,2.264792761169472e-05,-0.0110553115066858,0.0068242611409215,0.0182609232516813,0.0149306254568355,0.0200864790669308,-0.0040068573333189,-0.0363932621216308,-0.0298602855808623,-0.0040291606793542,0.0083200257739136,0.0112052668865959,0.0316829144754811,0.0173087775788984,-0.0022835223591296,-0.0111342308159906,-0.0205064453421531,-0.0145793799307695,-0.0109868120309574,0.0075256196817312,0.0082618029090138,0.008378935433242,0.0081494552899056,0.0154311151322835,0.0116604791474812,-0.0162112369827231,-0.0287098057717566,-0.0196046245674484,0.0101300530192572,0.0240262049596335,0.0086662136885337,-0.0016002285051605,-0.0098329400393017,-0.0049296132417331,0.0088563922639918,0.0068811261503138,-0.0070242938520097,-0.0210387022084187,0.0100362472978161,0.0174985252172508,0.0077318690683454,-0.0027010259301571,-0.0348573835583821,-0.0197051230266045,0.01957090705406,0.0400555888663047,0.0235152552911051,-0.0164364787157443,-0.0325078320673858,-0.0185446592341995,0.0069841751757524,0.002660940073665,0.0118414042176399,0.0110098823620367,0.0007610668093816,-0.0104117779327461,0.0130699258870655,-0.0110524579167924,-0.0002060654066885,0.0097044609603477,-0.0123189679608863,-0.0224272576772359,0.0026701091169395,0.0285222939408604,0.0075967886658785,0.0034324847968607,-0.013501688341656,-0.0124384519628459,0.0044561590386014,0.0035348720068235,-0.0065518275796009,-0.0012107144826484,0.005666159947204,0.0116834422196385,0.0066737431731646,-0.0072467823472029,-0.0167604279225611,-0.0150915474810037,0.0045897974402614,0.0195542568722547,0.0176437315194738,0.0077394910676876,-0.0136067470419049,-0.0283399000326272,-0.0061553011370818,0.0103154252839975,0.0141403175911248,0.0028036454953936,-0.0014258594157287,-0.0034052374951607,-9.559341160398472e-05,0.0038818625026453,-0.0027277397937102,9.19332640338768e-05,-0.010964448253601,0.0064680095448173,0.0053399936688295,-0.0077208637914626,0.0076115467954062,0.0034608041580164,-0.0111228382602595,-0.0040574182182993,0.0054409779696375,0.0124144024032486,0.0068401677283023,-0.0112215878402971,-0.0160736505085332,-0.001643256927444,0.0142387899889537,0.0078327094069783,-0.007996842366568,-0.0055796661352695,-0.0007859272019773,0.0017919263406241,0.0033003016691414,0.0072241061724044,0.0024486856975528,-0.0044838275846883,-0.001744458216661,0.0019916730626279,-0.0020664198589861,-0.027387938540137,-0.0110649045818843,0.0281993187992382,0.0280847477791513,0.0041469673288069,-0.0060500632094096,-0.00489540592856,-0.0110763200094758,-0.012504766881035,-0.0139777280619776,-0.0048279483075202,0.0122817803763752,0.0133695374514661,0.0143253751442952,0.0146476931242009,0.0101126824622729,-0.0170064408609506,-0.0293040605666639,-0.0152495576537223,-0.0020861336080777,0.0077107929769768,0.0204124580506817,0.0097420850202135,-0.0121449083515216,-0.000892487483595,0.0264975749610016,0.0193314435320632,-0.0240834672410333,-0.0427606006364028,-0.0217054859318604,0.0060095779633739,0.0109748132752032,0.0455433035532917,0.0367511313937652,-0.0040757617170819,-0.0353963618755938,-0.0555221214096869,-0.0004771456184803,0.0249780277927453,0.028779513340794,0.0173859323438686,-0.0115598637137088,-0.033047886226839,-0.0299079536544487,0.0137179179509909,0.0562082993624724,0.0439358631280038,-0.0080154824808992,-0.0551380637797102,-0.079559171924465,-0.0383566019215022,0.0677627321072419,0.0903536479158627,0.0551894416288253,-0.0211205609206263,-0.067630782660081,-0.0791179171862612,-0.020102478200989,0.0652096274588048,0.0491799978052369,-0.0024788403527038,-0.0243237252311225,0.0037285246324003,0.0279498070859154,-0.0027205137930343,-0.0488241570788566,-0.039253255658737,0.0319145465175667,0.0326956774656621,0.0092044849293307,-0.0002530629391727,0.0236790839122151,-0.007901386388296,-0.0561883361789629,-0.0049143999171207,-0.010854442392181,-0.0058892940804661,0.0598366670177268,0.0437138134958506,0.0082337001472703,-0.0272653735539515,-0.05778771283945,-0.0638142088922229,0.0216562785262915,0.052481564679749,0.0370891157878803,0.0241792383626289,-0.0014304346423979,-0.0241749871663646,-0.0461754321926582,-0.0312073529618724,0.0064019932294168,0.030142418078539,0.0279755983404734,0.0140418440073135,-0.0022442492982629,0.0074716470928887,-0.0164805827595246,-0.0528922678200427,-0.0010915073860307,0.0255414927092494,0.0028835867580499,0.0204308212558245,0.0199043604788293,-0.0175395940941718,-0.0160306221862312,-0.0100850096076195,0.0233890837648033,0.00727816843491,-0.0138878910145674,-0.0369158987654695,-0.0192988663929252,0.0186760000716784,0.0476684848306405,0.0550173171028222,0.0287631158759922,-0.0416679910934562,-0.1043008577122109,-0.1142902547498064,0.0537675064031906,0.124353868453704,0.0827675495643501,0.0348472533449869,-0.0671182333107174,-0.0828729915188766,-0.0906731672858618,0.0053589068842848,0.0658441335568628,0.0631407775367601,0.0394800874845826,0.0035455467162727,-0.0372365888014939,-0.0601934683368659,-0.0135753940849156,0.0083361117170519,0.0234194890823794
0.0123907127778829,-0.0033132140711482,-0.0164686040969047,-0.0066997677893658,-0.0059388062625387,0.0019749990320585,0.0086943365343848,0.000199757631734,-0.0118754878961587,0.000691118737977,0.0106720380898856,0.0108369788484908,0.0008769829337315,-0.0056625861271419,-0.0072989712780714,-0.0062740779914881,0.0012839980133486,-0.0044599430759787,0.0022822119992543,0.0068939233304258,0.0027785095812792,0.0017087424322469,0.0037239791126463,0.0038577740452115,-0.0037861270411003,-0.0087233568107813,-0.0127872531844117,0.0011288605346821,0.0016604852905791,0.0067403103588208,0.0081168908392017,0.0045826809513542,0.0057792646396956,0.0038402762866331,-0.0118674991189987,-0.0188335508721707,-0.006410020933065,0.0058262695302675,0.0105335571634874,0.004817907656236,-0.0007628924646278,-0.0016663970522029,0.0101046413701165,0.0090031060110649,-0.0034876602984503,-0.0180514504155837,-0.0178731126583483,0.0020803564887519,0.0120044708717159,0.0059966058597831,0.0009342332952135,-0.0010846703100658,0.0096628739320463,0.0056066322202096,-0.0017317426820773,-0.0048813771958063,-0.010724504770957,-0.0133392323225417,-0.0006551781306392,0.0041387040333617,0.007270137464955,0.0008453793071406,0.0133539543260652,0.012050286935045,-0.0002716038794774,-0.0082390809395964,-0.0116979844502835,-0.0187031440060404,-0.0107770094053301,0.0105143245354089,0.0180486254584023,0.0099835658874423,0.0027323664589528,0.0027453539131578,-0.0041795358698975,-0.0127225049512062,-0.0091267765256522,0.004205807354484,0.0047796858491361,-7.358173812033258e-05,-0.0044597498890608,0.0047893005926704,0.0028704111531382,-0.0020674139908821,0.0055166856396817,0.0070393167003738,-0.0027041391255458,-0.0105117689876036,-0.0104000281798262,-0.0003316965613498,0.0058009781814928,0.0039463476019855,0.0094219571893314,0.0050447296165623,-0.0044432753608189,-0.0090344452534179,-0.0029104598665765,-0.0020441217413702,0.0016839361553805,0.0025935636391046,0.0041578155770292,-0.0005614954501865,-0.0006501413309398,-0.0009147854216915,0.0026543690261918,-0.0023027876095839,0.0031964702830377,-0.0019987636825161,-0.0039082838702262,-0.0020338105876096,-0.0013219028156021,0.0010492067244338,-0.0004334337674368,0.0093380676417351,0.0051798546928132,0.001079028596836,-0.0065107690171861,-0.004548676532073,-0.0006087318598985,-0.0055769472768818,-0.0097675809526497,-0.0008725989758655,0.0178087074141664,0.013092968933136,0.0072109399735724,-0.0062039276397104,-0.0095382778524812,-0.0131101862563846,-0.0052293647136721,-0.003489438557661,0.0021469821136996,0.0126957491864173,0.0141096835161197,0.0075662398604947,-0.0036521471019776,-0.0131034081966658,-0.0147342830498021,-0.0046641408621084,0.0061167860069572,0.0114874172084498,0.0062701989476049,-0.0040286197281447,0.0032846040181545,-0.0044335313396961,-0.0083865060324259,0.0062057336010345,0.0038795003501354,-0.0040016724199319,-0.0089633120580217,-0.0033591767011756,0.0106149245906187,0.0122744619801783,0.0075689250163569,-0.0075364190813899,-0.0126305878521903,-0.001906296302961,-0.005964937418788,-0.0275064195712467,0.0208402970245579,0.0365641852615672,0.0112172109301798,-0.0042763513080932,-0.0193606334865631,-0.0138400401411887,-0.013968477250127,-0.004509968632464,0.0109052932676519,0.0133686020672249,0.0051412276850414,-0.0010416758938129,0.0076721975202621,0.0138676589146509,0.000239658375399,-0.0168946132402212,-0.0284885122762762,-0.0290226416768211,0.0156785630590737,0.0265727377701876,0.030813204740463,0.0104466359948737,-0.0071485655045164,-0.012745189672121,-0.0225328756691276,-0.008668135809703,-0.0100604466143764,0.0066232206597684,0.017011065669192,0.0108099316882744,0.0038833061110106,0.0026400088810861,-0.0012701525961699,-0.00672827262589,-0.0091618513159039,-0.0097247599941341,0.0008893536218707,0.0045402692821321,0.003150141679614,0.0062869400419021,0.0032519425918856,-0.0024344325995332,-0.002113043981962,0.0041854600303344,0.0098484838668865,-0.0007851376414323,-0.0206026822986517,-0.024916395699611,0.0023405772723723,0.0167212535354144,0.0338934573905988,0.0120663425440916,-0.0053721075622854,-0.02282980235303,-0.0227306561736397,-0.022328448461127,0.0170489856185475,0.0258007197569853,0.0157663486795178,0.0003632456449093,-0.0020811081806708,-0.0154711972029362,-0.007316645488933,-0.0057756989736022,-0.011149299878182,0.0039171130054312,0.0126440207789764,0.0222166652319928,0.0086849226166981,0.0075506823715436,-0.0136674483372044,-0.0314494001401447,-0.0321469178298094,0.002445551123015,0.0198498648021114,0.0343091252977093,0.0318681423266331,0.0052408075942267,-0.0260681801961599,-0.0354382602519341,-0.0297828774044042,0.0008573350588267,0.0292730857695407,0.0360201447666612,0.004735106012781,-0.0373858816098902,-0.0010544218176674,0.0176665340088758,0.0054392221416022,-0.0032656596870878,-0.0065366640323643,-0.0146028598228854,-0.0082424402541428,-0.0118216790224266,0.0301710844653164,0.0271791364957257,-0.0028356481209171,-0.0151148942983432,-0.0185809626891768,0.0114356007551141,-0.0016944020119514,-0.0191808957786387,0.0024333180008764,0.0175853528255353,0.0208258973604833,0.0040296218911967,-0.0216888831911887,-0.0134945917819338,-0.0195568791157346,0.0131198818532786,0.0265544750153808,0.0143439517883551,-0.0112468306166532,-0.0179883910554141,-0.0020480533325453,-0.003414012111407,0.0064928162044226,0.0108450920005007,0.0055994131538584,-0.0133519889678981,-0.0206345552790203,-0.0027172396355509,0.0277536363475921,0.0262210163249126,-0.0033658454506137,-0.0159725311028331,-0.0237019561143667,-0.0067573183001195,0.0023033730567046,0.0001896458397206,0.0115076528400042,0.0262873933407537,0.0037296843717616,-0.0134910679377694,-0.0092266327605796,-0.0092576505601976,-0.0029584706995736,0.0021281434466635,0.0072588278343073,-0.0019700960836972,0.0049598049845167,0.0008241422610572,0.0061187866282564,-0.0021482639289874,-0.0088096260738731,-0.0095722915196533,0.0061599222728979,0.0090705691896063,0.0083107663423834,0.0058794157547763,-0.0146939592128104,-0.0233994305941207,-0.0037281285211322,0.0143332077356882,0.0196830986707578,0.0079118221200029,-0.0002340947309789,-0.0108066113396964,-0.014971557257521,1.9547986411999568e-05,0.0052114718351517,0.0018828139351747,-0.0016928087857482,-0.0032419232710811,0.0010186918510098,0.0067527827522423,0.008751394889494,-0.0030981681364001,-0.0017588687840447,-0.0023511003394681,-0.0052411652995435,0.0010790855989158,-0.009691684567345,-0.0006860910546833,0.0075972556292143,0.0083416525529785,0.003515940061353,-0.0029099456947375,-0.0022263884104279,-0.0007793456359339,-0.0041037472522526,0.0045092610007628,0.001181515789373,-0.0072861213362938,-0.0107532841622279,0.0002805307135272,0.0204380069071536,0.0098834774943812,-0.0106927180714521,-0.0077000565072136,-0.0020896971361673,0.0015160395119248,0.0058901881638243,0.0004895024002018,-0.0006202681878386,0.000676294517012,-0.008304256774709,-0.0103150008343715,0.0015422756095286,0.0088190134313309,0.0136550068276432,0.0105507365333015,-2.985556345094508e-05,-0.0115487450137537,-0.0176306542910813,-0.0061565509117324,0.0060855246486513,-0.0002521629770867,-0.003527582534331,0.0125632176095622,0.0135736791639296,0.0042381884940773,-0.0001100771730874,-0.0035470426753478,-0.0124536471979309,-0.0188909739737939,-0.0039512370151817,0.0039189281425535,0.0119884092864815,0.012149650600372,0.0090339332139107,0.0070429666673206,-0.0088545699936121,-0.0169736172855975,-0.0063882231465885,0.0017264102937118,0.000115824459779,0.0015484747106713,0.0052526330981379,-0.0001676567489368,0.0021697390623436,0.0116790702687936,0.0040942925167877,-0.0088428181037906,-0.0090841371213778,-0.0105058641897067,-0.0099720595105138,0.0091945353851743,0.017781817409843,0.0081514045221026,0.0036878966918315,-0.0049723096663535,-0.0148933596006292,-0.009672911401972,0.0054182564734773,0.0056814471985915,0.0015085947585723,-0.0038520478670233,-0.0018240697860955,0.0073710807410544,0.0113633377190005,0.0025773416014791,-0.0092667292284893,-0.0127572773788698,-0.0103058648283683,0.0064253588366229,0.0140944574824765,0.0018738219965873,-0.0128294032341341,0.0075524034187503,0.0064421415479705,0.0017994380315894,-0.0085602626971808,0.0003393763781472,0.0022848621503829,0.0021639120476423,-0.0046211595126135,-0.0087247819432992,-0.0093082051270035,-0.0002191018350411,0.0180931064960535,0.0178291003529692,0.0052007322627646,-0.0054139000554005,-0.0131323368962276,-0.0109810527776369,-0.0051093260537062,-0.0050847517648428,-0.0037257159191841,0.006375813087228,0.0144743978891011,0.021096990927129,0.0100753461312655,-0.0084220630459073,-0.0217133540550792,-0.0216305082856435,-0.0032638096936341,0.0098657701963868,0.0102171637126805,0.0049998912635607,0.0034031810080732,0.0031976382957535,-0.0004239946115296,-2.37742669802519e-05,-0.0022980308220593,-0.0011227765193765,-0.0061333587614473,-0.008618780415411,-0.0125264361967025,0.0098066152020498,0.0158304910719023,0.0140325010183299,0.0020608332588736,-0.0099269969886864,-0.0113228645157118,-0.0027565849035646,-0.0029725172445381,-0.0025833075400969,0.0047751408105008,0.0096903999935759,0.006500182944106,-0.0029602560866958,-0.0084739307731874,-0.0027239720433267,-0.0004226332228124,0.0007975090522197,0.0019700736585554,0.0031203728763494,0.0055447504844687,0.0036557172137035,-0.0051894074583782,-0.0126959854262059,-0.0019089536792818,-0.0024497059518532,0.0068132455280827,0.004598089080972,-0.0006061525476301,0.0036789197256276,0.0109807776956143,0.0109481252970125,-0.0027265009094478,-0.0307761413522867,-0.0403128572821891,0.020683432397156,0.0274086538857988,0.0108951651382935,0.0057755240632179,0.0052940387430987,-0.0041428872598541,-0.0144665185423418,-0.0077841811335946,-0.0072648956352389,0.0006598690824661,-0.0010070119280044,0.0075914299746314,0.0058501503744274,0.0062307415326581,0.0027332580048752,0.0005486559204012,-0.0023880575647635,-0.0097688846229714,-0.0024601096022822,-0.0034938112014311,0.0037963771695716,0.0093264575340482,-0.0023801411494736,-0.0035839733659566,-0.0040026658991835,-0.0016400339288727,,,
0.0028982067077935,0.0022417346842037,-0.0049142650565206,-0.0086479037499937,-0.0095287635338918,0.0011191976634268,0.0029122494053133,0.0056135930682215,0.0122387971913343,0.0120882158004549,0.001155432252678,-0.0104403694070629,-0.0184413004395516,-0.0118537599793075,-0.0035241743790037,0.0079765051176971,0.009897220291037,0.0145117851817439,0.0099917267264312,0.0020333999090239,-0.008467162157061,-0.0134222141908102,-0.0152042440101028,0.0014404066157067,0.0050561673506434,0.0009261732792743,0.0011879429913289,0.0082112572860763,0.0091222072040817,0.0027147787763861,-0.0009013573334573,-0.0004911430899494,-0.0103336577826914,-0.0087907822535305,-0.0102070123067898,-0.0046317791990278,0.0109222788083744,0.0149093289936971,0.0107254471872465,0.0014171489197752,-0.0054305318509223,-0.0033535000205254,-0.007389669552235,-0.0052463550670416,-0.003064314496379,-0.0010468974442029,0.0001390616358074,0.0033035187462352,0.0045684270106306,0.0098548200610859,0.0077345280194898,-0.0019474152326998,-0.0097221174123602,-0.0063292084582657,-0.0052742013438588,-0.0057350088834896,0.0044269645454085,0.0047496236005484,0.0011628834748092,0.0065726124882391,0.0073422484572274,0.0003144046506422,-0.0038798730457266,-0.0060123228718019,-0.0061164866315308,-0.0074022045126312,-0.0024896790213675,0.0065308976331643,0.0089889546260191,0.0111985538120817,0.0061736631749516,-0.0105383863238204,-0.0087870387301478,-0.0055372554939218,-0.0035111480627208,-0.0032512230591916,0.0037579804463037,0.0091241980851269,0.0089360456372509,0.0078981147902939,0.0003754278260639,-0.0097760992056431,-0.0155435956374777,-0.0072029735424792,0.0018826341176343,0.00364075206018,0.0078914194830481,0.0088554949306182,0.0066299561685752,-0.0021262246198109,-0.0088261669773984,-0.0027958632093141,0.0005944854270803,-9.745679927393466e-05,-0.0011482716005297,-0.0039520296866043,-0.0141613931422547,0.0065770338357209,0.0169562620116967,0.0088069545992431,-0.0010186167961732,-0.0018011607786711,-0.0036166574584249,-0.0062026443786902,-0.0026773177877593,-0.0069398143223708,-0.0031554712018837,-0.0006863475299492,0.005989619357004,0.0058199572093498,0.0064444092974195,0.0088561413139679,0.0065833309092497,-0.0024525673610878,-0.0140963718077749,-0.0171145929020923,-0.0093343979278696,0.0001907241131081,0.0100961435156793,0.0134514996984076,0.0070539283006457,0.004342539679706,-0.000395112089929,0.0027590266422124,0.0026415726229408,-0.0103269236031558,-0.0242875437318918,-0.0128311114282857,-0.0047759806890797,0.0164013363289833,0.0284691980465822,0.0198567778512152,0.0017223101075673,-0.0087612383454469,-0.0231658782473805,-0.0148377275899519,-0.0065125456912814,0.0017100585513401,0.0038633498592103,0.0144595363591294,0.0122541598170721,0.0048124661905069,-0.0025725028651804,-0.0031644357304697,-0.0082260434798234,-0.0089176883671024,-0.0061876387050975,-0.0017708560990106,0.0118340316874289,0.0090497872667746,0.0024112223351375,0.0019223971582819,-0.0060655296079145,-0.0092554934558154,-0.0078983516515217,0.0017832328976785,0.0136917278841433,0.012756316008859,0.0025378842582265,-0.0114717054190314,-0.0243611169422326,-0.0067102900754617,0.0205248916692595,0.0192396314087118,0.0018138833397128,-0.0205839297766114,-0.0036409075524918,0.0093838110493363,-0.0029225390123673,-0.0024178409972856,0.0019427064731081,0.0059851357269773,0.000620302530833,-0.0024907113716264,-0.0077657141039686,-0.0008391053176547,0.0011995835137036,0.004462466008833,0.0054229713237983,0.0015686173570072,-0.0028523914941227,-0.0120400519253821,0.0019989336378377,0.0056900448316677,0.007162497162226,-0.0021032014812752,0.000576220413371,-0.0034792677091217,-0.0091634841756023,-0.0119103474088128,0.0084007550964007,0.0197091501352431,0.0136543412780427,-0.0070814611271905,-0.0153737153632686,-0.0113373234947259,-0.0021604620893433,0.008163179623509,0.0091225071020417,-0.0044933506552936,-0.0109499186200857,0.0151317732502769,0.0198884709364866,-0.001665232851587,-0.0245707810971823,-0.0213125161151982,0.0033030144919636,0.0147244772505632,0.0120159441576151,0.0085549385640321,-0.0016814535092999,-0.0067066212523933,-0.0045415442513616,-0.0127669917480331,-0.0008551112485235,0.0081308760783099,0.0044900709079456,0.0086245969302199,-0.002479304805573,-0.0031098920417237,-0.0078008133077452,-0.0028646131068977,-0.0044905803272117,0.0158045437415573,0.012063789275416,-0.0045762927528779,-0.0201234431234154,-0.0006797265074659,0.0063517330694448,0.0008427872534176,-0.0052476998166935,0.0094222308571976,0.0057139403264417,0.0004950454426905,-0.0023846502916693,-0.0074385624910035,-0.0064041341903205,-0.0043969042689244,0.0133788508462314,0.0050318766298398,-0.0052922226907276,0.0020497444880349,-0.0068252595158989,0.0018886625172586,0.0049193346091174,0.0066412589235069,-0.0078115852093163,-0.0083238763278368,-0.0078666511866349,0.0078708392513891,0.016019530487227,0.008619407282368,-0.0108400626570507,-0.021498736046628,0.003662143545211,0.0139494911136904,-0.0041061680941566,-0.0021589073269247,0.0061957138684287,0.0076345200511012,-0.0010227555520311,-0.018427481510088,-0.0008975695008102,-0.0018766213943954,0.0022651172504615,0.0204737048207122,0.0100968906723615,-0.0138642128773701,-0.0156458659031369,-0.002505854391861,0.0079607657304462,0.0048294049065289,-0.0049992316708151,-0.005831184299053,-0.0039871216258271,0.0138199034941495,0.0256875624584907,0.0027298852287126,-0.0219853300521743,-0.0275428631801169,-0.0105912399072415,0.0037487103238048,0.021871328591072,0.0178430613529615,0.0064128660603502,0.0012970519762251,-0.0043795851166188,-0.0140555656052735,-0.0076144546582127,-0.0108236449566766,-0.0136070548024359,0.0071183386568009,0.0241473073276642,0.0199058766208852,0.0029579234759169,-0.011819397422031,-0.0055369209607163,-0.005376519755156,-0.0099176934484061,-0.0097336981149154,8.258256438257329e-05,0.0089599039120736,0.0056815541156907,0.0097979803309319,0.0108347678900895,0.0043048817569167,-0.0121720442815899,-0.009071439820298,-0.0122222563405809,-0.0063556283514364,0.0072893551696173,0.0039490485559981,0.0028412284965449,0.0126550165454514,0.0094602167350582,-0.0025412510690805,-0.0118053399309853,-0.0126532691227897,-0.0001791946352427,0.0019833501026459,0.0005076887523612,-0.000768926060159,0.0087847027745068,0.0107427036149287,0.0057572631566258,-0.0075457391212623,-0.0168602260814554,-0.0119178491640144,0.0014716608685112,0.0111460770684634,0.0115309631271698,0.0074736121594309,0.0002731375048738,-0.00153396734715,-0.0100692165308847,-0.0080065936184844,-0.0085565713612691,0.0027918886802797,-0.0019606744861066,0.0024810665105244,0.0208572055174686,0.0150832954924257,0.0015326942493291,-0.0138612023893516,-0.013678341324536,-0.0156945356497408,-0.0122934567386686,0.0086010074762352,0.0106972680020283,0.0225270823081176,0.0157934720303761,-0.0068313268427918,-0.0148002781908687,-0.0121195526160867,-0.0063793545017211,0.0014407573642452,0.0048017897315456,0.0052679017434598,0.0043120800922453,-0.0106554416499269,-0.0046095265913563,0.0178431999804494,0.0126334640323917,-0.0021819592709172,-0.0097330537973416,-0.0133645104937255,-0.0117167906373609,-0.0061842606718738,0.0147041758644953,0.0181058262385754,0.0085915804976433,-0.0007797497396101,-0.0066255383702814,-0.0129542556412947,-0.0162722947097497,0.0009451143947561,0.0151976061660827,0.0144170520830597,0.0053092213697821,-0.0082575468161383,-0.0098282236203445,-0.0065685440225604,0.0019544389538585,0.0033536190811746,-0.0012017599445338,-0.0035337458486249,0.0052982486728119,0.0090496866384933,0.0069662944216944,0.000673817454752,-0.0018267941129351,-0.0112341153849684,-0.0219206869683569,-0.0132730440470419,0.0175312446016014,0.0208660860918939,0.0113268874482996,0.0047266807797944,-0.003150420098086,-0.0077708229467485,-0.0105242500907936,-0.0090783687273407,-0.0057540763626426,-0.004422969997125,0.0076934282698418,0.0156526911516402,0.0049088782471832,0.0043103426167631,2.9360142319444312e-05,-0.0009106147308701,-0.0048910355431,-0.0085958932207751,-0.0108956416396517,-0.0050374548751374,-0.0001030369782293,0.0142690493170324,0.013640030190266,0.0084029744201785,-0.0063965502487962,-0.0150194068559165,-0.0033858525643401,0.0088843426921441,0.0051888763655213,-0.00628630370755,-0.0115381167879776,-0.0067366311654799,0.0064090245661235,0.0118021204850476,0.0092950188065174,0.0005083232096246,-0.0011805856502009,-0.0004933249601353,-0.0061552034544397,-0.0108002463851173,-0.0060389963231408,-0.0027628135579888,0.0068527040517476,0.0102683177062752,0.0083475915763692,0.0030310020177609,0.0008986796618607,-0.0027644468061031,-0.0103682725517662,-0.0093419246912283,-0.0036256183577769,-0.0009535284604731,0.0073842704449266,0.01244981337392,0.0017886141003938,0.0019473160999863,-0.0034484187062126,-0.0041739064501398,-0.00281097652701,-0.0040159182950853,-0.0036862860563872,0.0044403770179044,0.0068037061531026,0.0022899731677023,-0.0009776089813508,-0.0024171860610022,-0.0062497848955668,-0.0085475555647309,0.00392033163986,0.0170280049822306,0.0123576334134355,-0.0013012845214853,-0.0125602354502936,-0.0190986113334048,-0.0157697770868764,0.0097459330037088,0.0160870364313905,0.0138764254538551,0.0076683743520504,-0.0025020498952878,-0.0091855675755282,-0.0104827459082707,-0.0087764440716832,0.0023375031094077,0.009494443131386,-0.0001196482991646,-0.003190695690482,-0.0015372884193444,0.0014466806706687,0.0067083951622915,0.010020777873772,0.0071090748855629,-0.005265926831016,-0.0240469685422094,-0.017546946029412,0.0056579417394679,0.016888182868146,0.0112151371191575,0.0047219965850402,0.0020466436909997,-0.0030765528247744,-0.0113817655703215,-0.0077618230549776,0.003392545911311,0.0054144606549177,-0.0038206782182938,-0.0078880360682162,0.0052257576499826,0.0109140254771483,0.0050968455218628,0.0018171975026215,-0.0038838493880514,-0.0069970183278473,-0.0078740427013732,-0.0005068518782728,-0.0015973262246268,0.001324854405377,0.0022045993369811,0.008980533159277,0.0068490840111267,0.0021492141399177,0.0035585022606644,,,,
-0.0044820682291544,-0.0031855370335398,-0.0054194454896451,0.0031040860966508,0.0077743418978673,-0.001184697015723,-0.0025246796462281,0.0025542195622965,0.0037590496884574,0.0006019928513568,0.0003403240616185,-0.0050635635827738,-0.0078118527258813,0.0039724034020686,0.004961257049661,-0.0006685192850123,0.0025163481065461,-0.0031945957415005,-0.0062229346281097,0.0025350919022039,0.0067540108058922,0.0028575255760604,-0.0011776060387092,-0.0030460572162756,-0.0043290939623061,0.0004802207719912,-0.0003910914246976,0.0018214173447195,0.0001672526025885,-0.001656972949347,0.0012198172909105,0.0031701038361779,1.3836910444104055e-05,0.0006557974059131,0.0007644818034891,-0.0033468828564241,-0.0019621864448283,0.0018538418610989,-0.0015242115534023,-0.0024799064070937,-0.0004775335881831,0.0007418728686799,0.0056269900745064,0.0032151341587588,0.0004915092588887,-0.0009520014389371,-0.0043000293779032,-0.0009563313283381,-0.0018728394775748,-0.0022054942225797,-0.0001188324419522,0.0014773028826753,0.0006362282627347,0.0013381484651122,0.0025886294915525,0.0088621012651334,0.0049622759110659,-0.0072009212038931,-0.0129164527267936,-0.0096069871094045,-0.0018851561900612,0.0072149093628277,0.0117426325966473,0.0093879783695958,-0.0006769346888873,-0.0024952550501701,-0.0036214732250354,-0.0110602923740049,-0.003917851924423,0.0032366349612389,0.0068369122694817,0.0023985519184197,-0.0072524680840107,0.0015026978915952,0.0102211007742746,0.0018254738340865,-0.0066033604635183,-0.0033635049196879,-9.684946988655162e-05,-0.0002136919072651,-0.0016343612574516,-0.0004605442959556,-0.0018418445683749,0.0007765709304214,0.0070063231431646,0.00568859832631,0.0029824719413999,-0.0038280327202874,-0.0077002786516306,-0.0104758185047774,-0.0025035859902175,0.0067307416907721,0.0086421164134635,0.0050221653665189,0.0003519437105931,-0.0027011119940382,-0.0032729425683922,-0.0022395619069372,9.028367717276352e-05,-0.0017241330378126,0.0003809749265462,-0.0018105641671408,-0.001071470593506,0.0044987874563319,9.804551327816796e-05,1.7690359737388148e-05,0.0086653543840975,0.0026367758780237,0.0001126868458776,-0.0112732265522395,-0.0098955719707549,-0.0047080070547634,-0.0012184238422217,0.0073619221033733,0.0134518165788562,0.0111599118335863,0.0028596360676153,-0.0022157570194633,-0.0109589856940796,-0.0125253602585409,-0.0139695076335238,-0.0019260778619653,0.0101866900182323,0.0143657493885678,0.009099645632599,0.0064126174637639,-0.0011628264534288,-0.0060314261918282,-0.0091478987059707,-0.0099302128816309,-0.0075137394168039,0.0013979793215804,0.0089204253218381,0.0098576657506249,0.0050048953518396,0.0013308928494042,-0.0048714194323488,-0.004805105593266,0.0005813589698449,0.0026389005683201,-0.0059463061104185,-0.0060879336131972,0.0068361113771626,-0.0014701264548747,-0.0019088304111369,0.0023643944127504,0.0060309840156213,0.0082358391618615,-0.0012378945674484,-0.0127336647219176,-0.0005711780656288,-0.0013545745404624,0.0019480729892582,-0.0021590759436899,0.0015299068382069,0.0024645525424261,0.0018847596098067,0.0050352097974987,0.0023620101056971,-0.0060958645371448,-0.0090734202869072,-0.000267146965514,0.0028149777360311,0.0022957043683785,0.0025260923764789,0.0024947225145026,0.0019182995136841,0.0055668712285114,-0.0095995934058804,-0.0121701229814565,0.001287183713843,0.0058788107703707,0.0034955188249668,-0.0020215790206234,0.0073337072695539,0.004895166268934,0.0035638750987479,-0.0078585099227871,-0.0143096641922432,-0.0069284394298526,0.0024229794634864,0.0099471747666425,0.0029092183089078,0.0110638759877475,0.0069786999517751,-0.0093119319285323,-0.0102698015287385,-0.0044372004245539,-0.0041955831538602,-0.0040764512914695,0.0065631966309637,0.0107246382372913,0.0124798197886105,0.0060094338248889,-0.0072170626464787,-0.0212617390681284,-0.0139327176002651,0.001338425239257,0.0080697909655264,0.0132429355365818,0.0132129816126105,0.0026285248282959,-0.0010770754319655,-0.0081970436610093,-0.0100689302719307,-0.0104843546882391,-0.0067829890992251,-0.0010693722034622,0.0042609138022322,0.0240376089338664,0.0129555921839968,0.0019427211845703,-0.0062102317195581,-0.0044065973286233,-0.0159786975114155,-0.0148549022680569,-0.0095419588569738,0.0010346541070111,0.0141981481258425,0.0292541872073174,0.0144622186560634,-0.0031365054531173,-0.0199285050618835,-0.0131777619646697,-0.0015776696277832,-0.0027110888732316,-0.0027986785722449,-0.0061118002671351,0.0076091059221852,0.016997261150905,0.0093933588492936,0.0022461910676147,-0.0045525558022707,-0.0140471693297571,-0.0062482446299699,0.0020209281217892,0.0056016995173187,-0.005160566959133,-0.003652461048439,-0.0026921112492632,0.0062587993319318,0.0064605061736959,0.0098507467746481,0.0067963821563227,-0.0034849169877304,-0.0108080907459397,-0.0087643294847176,-0.0114006112249266,-0.0004726835442578,0.0025549832428732,0.0024021285452072,0.0176366907176481,0.016618453486706,0.0057960428459464,-0.0112461472065585,-0.0224241713062358,-0.0160207242158078,-0.0034834075249035,0.0101266588477805,0.0191680690064154,0.009060800949512,-0.0061662270362481,-0.0018007971634047,-0.0015348774714781,0.0016935847285634,0.00105041566314,-0.0110880810053063,-0.0152886152498421,0.0031313465546586,0.0142055161236799,0.0132818759091364,0.0077759445880769,-0.01256601950312,-0.0195776406162463,0.0049745581350574,0.0191175528414524,0.0090128137338588,-0.0153113837678936,-0.0259616303841592,-0.0073291696998946,0.0168285743793993,0.0197405944697425,0.0164965973977345,0.0031969589192494,-0.0141530053640548,-0.0259944166224117,-0.0126262739003344,0.0092434108575089,0.0138792554196671,0.0109231234062116,0.0052125972062029,-0.0043783206205177,-0.0169299892215943,-0.0060991317661929,0.0098896998108721,0.0126296834128751,0.0019822111443451,-0.0042882027047345,-0.0065333992620196,-0.0109727421081643,9.168001798804796e-05,0.0071417317379782,-0.0011705207599759,0.0092737897045119,0.0074792309697888,-0.0033824040398417,-0.0089998374617942,-0.0069814464032874,0.002020013598137,0.0071040043821555,0.0035867008935651,-0.0037606031999173,-0.0057225033634176,0.000471742179889,0.0018763632287544,0.0001071719069892,-0.0018001243324227,-0.0004555481805638,0.0093015051886877,0.0093007582869059,-0.0015048324099309,-0.0079804967908017,-0.0127658286367162,-0.0114050009277773,1.4897948033602956e-05,0.0091919910500524,0.0145079531345282,0.0100235882464502,-0.0023643145778169,0.0014970184774825,-0.0014791024832226,-0.0059621638496097,-0.0182686057249187,-0.014626970220658,-0.0014209478398161,0.0122389032819499,0.021803101536056,0.0206689996666886,0.011066063782954,-0.0101566876229765,-0.0297563012789025,-0.0326161185538084,4.3867472350940193e-05,0.020837692633421,0.0164433797662841,0.0094329662778133,0.0010902766770182,0.000685833864895,-0.0044867008832607,-0.0081811671355016,-0.0055384596979877,-0.0050133823162501,-0.0018315169281922,0.0044866939809184,0.0060557345187192,0.0006077282219829,0.0021870334305434,0.0052066310673109,0.0029399199099744,-0.00426709263763,-0.0055094913749865,-0.0036614145478243,-0.0050202346513816,-0.0015832010245629,0.0007703570211414,0.0085891383299673,0.0084360303873583,0.0023522873583293,-0.0031257889719694,-0.0081632229713995,-0.0068263079367005,0.0059902418465356,0.0014713037754563,0.0039639172782933,0.0022533897629092,-0.0074780290344419,-0.0112213374314838,-0.0077010188600951,0.0119824713794998,0.0269569405438389,0.0144001877614649,-0.0092762016707012,-0.0270831304010693,-0.0188973784269066,-0.005737195419576,0.0065666625797862,0.0149189067959275,0.0183047436926113,0.0142947218513824,-0.003430033734739,-0.01529476957069,-0.0069964255771379,-0.0041966662667452,-0.0100022393767224,-0.0054727910097444,0.0006797645419393,0.0033047449221766,0.0189714567608105,0.0254513377172674,0.0051426692923629,-0.0111854617892332,-0.0238230230890677,-0.020386073230447,-0.0073992905082063,0.0043846022640501,0.0112356705429435,0.0153232964209134,0.0159396257545851,0.0047346285793039,-0.0048957614082417,-0.002103601904058,-0.0093219983964144,-0.0222134918838359,-0.0170973463867614,0.0046460226334697,0.014177938790949,0.0195213751064508,0.0161323876372071,0.0106155952185339,-0.0070563414255765,-0.0231789076745647,-0.0157021982772829,-0.0090063778911251,-0.0029135293709523,0.0111182270079002,0.0136770148736173,0.0152445514509389,0.0087346179877419,-0.0036508111375225,-0.011298416949563,-0.0159522151224933,-0.0118416552622522,-0.0025336774337531,0.0129895699167286,0.012899916605613,0.0096118834722778,0.0058963199106824,-0.0094604388397993,-0.0150032841071087,-0.0070522281203517,-0.001665735815022,0.0094731069640386,0.0083571934318973,0.0006845474393164,-0.0022549312764802,-4.105725272836219e-05,0.0011477958727056,0.0028575655799546,-0.0064055763567989,-0.0060740526635617,-0.0030872568291875,0.0014279008455345,0.0045606610123525,0.0038637329547155,0.0052459299380046,0.004733162170321,0.0013697564347855,-0.008706094650306,-0.0102717954209753,-0.0049730801202621,0.0018277585620815,0.0049378589515566,0.0049637346994379,0.0031031449225116,0.0033773488565133,0.0010821834172634,0.000543566007648,-0.0044869870891809,-0.0050928316469839,-0.0059113622344828,-0.0045680759080851,0.0086963117390089,0.0031031782221935,-0.0029464910991379,0.0072906632316555,0.0053050878668895,-0.002564055874288,-0.0062830605513164,-0.0049871605774941,-0.0011904961337175,0.0087738734048797,0.0046685046039793,-0.005662803026224,-0.0139508276800054,-0.0059025262693605,0.0085401360511787,0.0124351838699877,0.015110332068555,0.0008200585424184,-0.0075979474874869,-0.0109046712885442,-0.0081000864696427,-0.0102607496218646,-0.0026906455956926,0.0051328634919953,0.0112237307962623,0.0201329504830647,0.0146459914052107,-0.0051467075866369,-0.0232009888287771,-0.0177529960789392,-0.009522350235702,0.0050949973739514,0.0091463120222333,0.0123427715795924,0.0143686305325418,0.0076843199404797,-0.004659771610665,-0.0145238959617054,-0.0205512209645358,-0.0056843200984855,0.0028192358488517,0.0091041162426775,0.014316971183016,0.0116788608869879,0.0047486677794445,,,,
-0.0074000609937288,-0.0010702346415676,0.0096208836719344,0.0110142272229328,0.0046423614368713,-0.0058851860354703,-0.0078584591370718,-0.0063063718428575,-0.0071589828186808,0.0005101944634427,0.0031553706652893,0.0078073861597077,0.010078091162512,0.0069158687705758,0.0004624456546846,-0.0128528947202017,-0.0107119644522874,-0.0061052011183414,-0.0006786195466263,0.0059457301534419,0.0097469130265336,0.0096436905169364,-0.0013917485744148,-0.0073528414759451,-0.0035444532203772,0.0007051944033523,0.0003032226919134,0.0002623405664808,-0.0012901144373454,-0.0055136070885621,-0.0060915403863684,0.0048687886888364,0.0107108807492674,0.0137122301226452,0.0044669715757424,-0.012493702286953,-0.0188579266669202,-0.0070504927684752,0.0031863447968543,0.0083893173168245,0.0068232682320599,0.0041902206777938,0.0023350271045692,0.0020805081905691,-0.0002438094231642,-0.0037022359333794,-0.0087726237593027,-0.0142862068489616,-0.0017964614572043,0.0115041731636591,0.0144443433148138,0.0081933158847821,0.0002486788402138,-0.0098889424389276,-0.0134126226762107,-0.0062396146568985,0.0094696312614216,0.0096998535707933,0.002051168870829,-0.0061842602398252,-0.004723424988079,-0.0020501624859632,0.0034101824499343,0.0026261576787774,0.0046504344886021,5.8203276625045866e-05,0.0008160494437812,-0.0023578636164561,-0.005578236578072,-0.0105444878295738,0.006850925571165,0.0049808670766513,0.0029090547709528,0.00626187727706,-0.0019445949028114,-0.0076327595806265,-0.0013586695303995,0.001235897715317,0.0015375044216835,-0.0001781151967592,0.0015998333652766,-0.0037714539079881,-0.0034022773029495,0.0050081607820223,0.0052767098630249,-0.0026801425306794,-0.0008150019492286,-0.0002583140098855,0.0016743773348366,-0.0002839146018431,-0.0053234924976116,-0.0034510090589337,0.0024313727597578,0.0025609995353521,0.0033707205755429,0.0018286595958095,0.0008226931787439,0.0025931823456269,-0.0016824680712656,-0.009222540721286,-0.0060617717975162,0.0011549068037842,0.0025951075054353,0.0058024722418899,0.008774610480941,0.0033610068263108,-0.008901848059609,-0.0045807997785173,0.003836389926468,0.0028630034032747,-0.0092524963220159,-0.0096899730686891,0.000477240614207,0.0093696895945542,0.0097053955666191,0.0070048747532547,-0.0010778677174965,-0.0033663508952066,-0.0042633657198054,-0.0038706878449059,-0.0093374341830839,-0.0085908347163229,0.0019648595374812,0.0117580642282022,0.0121362973217481,0.0064774021134743,7.171124464499661e-05,-0.0033126848616332,-0.007551539509857,-0.0108690735101066,-0.0082172857592688,-0.0002557950983351,0.0091384882016279,0.0084338374154467,0.0057801079054025,0.004396972584347,-0.0016164948637788,-0.0054261517099757,-0.0093080089538488,-0.0049931940432034,-0.0010349176570105,0.0037206214431935,0.007388121839437,0.0075137896113144,0.0030361786868294,-0.0069762845826042,-0.0061880652932599,-0.0039835201625881,-0.0018838691467881,0.0037806140215587,0.0010494007380884,0.0040662165526523,0.0045418488368977,0.0016488049185773,0.0004177422812839,-0.0033342612763777,-0.0084907912848851,-0.0044459708696521,-0.0013075023301965,-0.0006886093188755,0.0026812432654483,0.0145362425870977,0.0103687819079766,-0.0033763750779518,-0.0019096073046186,-0.0111618376331355,-0.012036515997673,-0.0047066650136378,-0.0041633989801333,0.0100610605048518,0.0175273260213457,0.0092688729935415,0.0004005128572065,-0.0038631486503949,-0.0069739457213662,-0.0133341770734325,-0.0095025079052896,-0.0039457834524215,0.0082058841307693,0.0137886658068227,0.0127019757466495,0.0083086937448499,-0.0069215909747489,-0.019582137653209,-0.0125681585254444,0.0024166201031497,0.011164889550283,0.0069336070339266,0.003400139814941,-0.0016764578812214,-0.0056029295311262,0.000387767608818,-0.0029361316170126,0.0001600044536052,-0.0012127555037378,0.0012161897483338,5.016064406792461e-05,0.0023439946875466,0.0095026128666701,0.0061340800991574,-0.0059675057584384,-0.0220721608834395,-0.009253703445808,0.0060116269999692,0.0122436620873396,0.0138544258064775,0.0081468342725118,-0.00237593809499,-0.0136860001010454,-0.0114652799104992,0.0026840403191267,0.0037267982001786,-0.0060299844393154,-0.0045968932560393,0.011344158245421,0.0089201880568583,0.0061798024255444,0.0007731506491174,-0.01040303120241,-0.0131352762148696,0.0050171723644779,0.0011709361281029,-0.0016657268832245,0.0016063313482523,0.0013135519253146,0.0016924757989063,0.0064587462592613,-0.0003324536431983,-0.0029727559238468,-0.0041809651885249,-0.0003656163674981,0.0059135207564177,0.0024488880175959,-0.0074971591136909,-0.0119076390427709,-0.0069240595810437,0.0089468777887856,0.0206959059897217,0.0108435118643147,0.0029232985930356,-0.0109875875756904,-0.0209869206265676,-0.0163226217007593,0.0022591072909777,0.013403898455338,0.0138490745322723,0.0078360600066038,-0.0030732450628641,0.0014217275108947,-0.00219471542638,-0.0082705029399412,-0.0054777394414736,-0.010218957070613,0.0013174717048091,0.0069089626145705,0.0094828080710681,0.0059385937275194,0.0008950987511043,-0.0001925145607324,-0.0050214474862647,-0.0077436399661041,-0.0025413776101537,-0.0006818561084133,0.0100297840772946,-0.0009114645060131,-0.0131575159643068,-0.0028722146500012,0.0168643673242273,0.0098971984867061,-0.0055851926777593,0.0021264648952712,-0.0043189534253124,-0.0055450872965853,-0.0062983141165017,-0.007701833659016,-0.0065466643132129,0.011368881740757,0.0184320975873986,0.0086354720696681,0.0045067917518312,-0.0101981069311481,-0.0156490353208349,-0.0108092852360317,-0.0019005001343921,0.003155364507318,0.0101025146830428,0.0086429262837653,0.0008234040785669,0.0036436640964917,0.001365462925107,-0.0023108688297402,-0.008728424643554,-0.0122061091709247,-0.003789651193963,0.0013098735969411,0.0066905441720572,0.0138357027021649,0.0135165058180757,0.0019224169511031,-0.0141683664933585,-0.015127093972788,-0.0074330745846459,0.0018430277950241,0.0048187690763087,0.0064991147513651,0.0049931101828582,0.0055296880531315,0.0050992699843089,-0.0028075215073162,-0.010042278378674,-0.0047145306007401,-0.0036846557040253,-0.006486228305426,0.0003960329656308,0.0090025164903832,0.0126025679294221,0.0069674021504372,0.001498396811902,-0.0057854377120843,-0.0124013714217944,-0.0106656474021371,-0.0019346975207864,-0.0032232778642902,0.0119738520288236,0.0109959659662537,0.0118122554445728,0.0015509825021528,-0.0074641336919639,-0.015950847463938,-0.0080348396075307,-0.0052343417207302,0.0063801827572114,0.013033815947537,0.0072520264925842,0.0028817609412017,-0.0017613984607661,-0.0044531578711957,-0.0106669469154865,-0.0052910870302078,0.0022455854213272,0.0060677190168429,0.0032377760904237,0.004344328493911,-0.0022883335452061,0.0021084934273275,-0.0022096108178054,-0.0052129070329803,-0.0019080345147774,-0.0023101870475315,0.0008154930408219,0.0083425299740927,0.0070172438370823,-0.0016565739582014,-0.007353707675188,-0.0081174195454197,-0.0003879233785407,0.0013095899507604,0.0048405061110839,0.0087933262232,0.0062276976700316,-0.0063526749934179,-0.0119910466699497,-0.0036588314850736,0.0030855134670326,0.0010031539779793,0.0008395774075822,0.0078561432436057,0.0035268735787919,0.0044337206838199,-0.0057919050330148,-0.0157531492995181,-0.001425013848604,0.0021417604174687,0.007496514273285,0.003397105135322,0.0046832181044534,0.0021686952517982,-0.0021038090325616,-0.0053310081574973,-0.0085348797690677,-0.0058412791184282,0.0055720276200888,0.0079790334850482,0.0046187031654338,0.0009723354123865,0.0008201748423265,-0.0026585217626456,-0.0078017474180231,-0.0076338797666941,0.0043517573152667,0.0093318462909126,0.0038151349547524,0.0003536755923336,-0.005207707464476,-0.0105687735548308,-0.0018896785154107,0.0090340803763291,0.0071625801471258,0.0045856147014023,-0.0008113201556524,-0.0073083716611401,-0.0070317390337316,-0.0030174015181962,-0.003594203251027,0.0053829104765677,0.0082696965825899,0.0080673303953495,0.0037045475344329,-0.0061555769534509,-0.0106138401822223,-0.0047538736869521,-0.0048459558760151,0.0078168398496533,0.0094432997174291,0.002192429780033,-0.0032836667557237,-0.0035175334970052,0.0010249292936226,-0.0087996837737458,0.0048257853512785,0.007355618461687,0.0028260381245833,-0.0028129333749993,-0.0044045092488382,-0.0048599749864009,-0.0056058960269511,0.0012602219952634,0.0061416659184458,0.012036191159087,0.0035558375377553,0.0005186325901755,-0.0073785102343607,-0.0125422697977831,-0.0051301433993421,-0.0006657501112519,0.0051625527129772,0.0028925106196874,0.0068108406542007,0.0080478492890068,0.0068464396093138,0.0020471862988449,-0.0125628599506285,-0.0154218461539449,-0.0152251860041084,-0.0034556254392208,0.0154367390903423,0.0216155126935392,0.0131099094837275,-0.0030012626489352,-0.0115598785689699,-0.0092586852220627,-0.0035450699965547,-0.00491779310541,-0.0006889230365659,0.0020365456552028,0.0083385166466251,0.0069373194978107,-0.00514675480138,-0.0061881006677228,0.0065978446214004,0.0058006491485729,-0.0017768824548588,-0.00337843724707,0.0012866312422635,-0.0025196045312954,-0.0088717172644518,-0.0168591054390953,0.0085105113007125,0.0172757025887075,0.0132511442030442,0.0045952960418787,-0.0065724302942741,-0.0112423367519457,-0.0069088424692701,-0.0044041078889212,-0.001365141249762,0.0037832316275098,0.0042778335597775,0.0047337098492134,0.0030864199850622,0.0023525336983933,0.0024999326719062,-0.001029445729464,-0.01405922094474,-0.0118442726773991,0.0034524298836897,0.0141826563658459,0.0123921793436986,0.0030713255899749,-0.0095069363899046,-0.0122980049319464,-0.006031415297744,0.0036989885979759,0.0041755978898364,-0.0030404866937875,0.0092378183323698,0.0132687734975181,0.0042232220230842,-0.0097313890511342,-0.0184928283953537,-0.02197835503799,0.0155214968942901,0.0244461415848674,0.0091162552309367,-0.0076642701514739,-0.0158931252285568,-0.0045982855936065,-0.0006766957231769,0.0075451096452116,0.0084150139138828,0.0043663355946087,0.0018122442513505,-0.0069089386918449,-0.0085796330566598,-0.0063890618968882,-0.0033479188624993,,,,
-0.0001446840023386,0.0007425095395351,0.0013612341380176,-0.0004780438547781,-0.0068225481593507,-0.0102209522388525,0.007336868271631,0.0147387163719376,0.00932466900823,-0.0021384211285469,-0.0108617194729357,-0.0088656796435551,-0.005811482323831,2.440206272574507e-05,0.0048505293097051,0.0067407762220816,0.0089421401762636,0.0029131659435284,0.0007220313133496,-0.0064152321144035,-0.0090318248472691,-0.0074405382505932,-0.0042536611738615,0.0034141434062989,0.0071960226812668,0.0068332118230463,0.0062731005930972,0.0038519780705964,0.0019865856689675,-0.0044190333244095,-0.0122020111535516,-0.0089794429412803,-0.003630429802076,-0.0020721539317627,2.6678548590153403e-06,0.0116538607957406,0.0158072792030955,0.0140053899797943,0.0023199901477364,-0.0149688374782301,-0.0129963221159264,-0.0154497865487582,-0.0077557821942355,0.0005410758932554,0.0104021668853032,0.0137195436572428,0.0147820176225594,0.0067914436659923,-5.04841137572803e-05,-0.0103816686493355,-0.0159370990721523,-0.0094035323220306,-0.0026815046324716,0.0018857240502951,0.0027805168233494,0.0011958837958896,0.0130356390058351,0.0157038343146563,0.0074541234411812,-0.0063694756476292,-0.0124381362907394,-0.0184817078374364,-0.0114747947159858,-0.0007997210436314,0.0074407586693634,0.0129689553913459,0.0118124100234178,0.01338760275822,0.0030461465908427,-0.0095677683948985,-0.0159260660760297,-0.011390333217298,-0.0103384577496851,0.0007108699682285,0.0124898748246616,0.0116493509760259,0.006684435741778,0.0067362207240954,-0.0012745001451518,-0.0051349046953226,-0.008700711431527,-0.006387377420433,-0.0046322672180742,-0.0060451995431891,-0.0004367801169742,0.0113411223798697,0.0128766205595685,0.0070831386466204,0.001115150727874,-0.0080146795978046,-0.0031075947922521,-0.005285324400198,-0.0084784319377104,-0.0070236341438086,0.0012390745689654,0.0044410128399635,0.0121616678167912,0.0119537498696308,3.4450294729123625e-05,0.0021651667217396,-0.002879179673703,-0.0136080796035034,-0.0149934909873454,-0.0085562310168168,0.0049089907673266,0.0136263606103554,0.0149705154388014,0.0092036090357778,0.0024711049631864,-0.0091883470493172,-0.0114565932561156,-0.0115791763231921,-0.0077680192128376,0.0025046231318827,0.0078193029633463,0.0125026452482839,0.0111077987032886,-0.0055137269639526,-0.0001753566753117,-0.0016828692319931,-0.0067435214039312,-0.0060051852766806,-0.0093115271517981,-0.0038054139469361,0.0038253346683159,0.0174732286362365,0.0174770292590193,0.0062424029164191,-0.0200514022901998,-0.0135836339660782,-0.005672483361495,0.0009949817730365,0.0047943527608545,0.0011144392127035,0.0087082745375066,0.0050947944704974,-0.0001239520117771,-0.003304910702612,-0.0052000319285296,-0.0020075490634663,0.0005877701800842,0.0005338086412978,0.0004765361403028,-0.0038184073040896,-0.0058251283763702,0.0052384792265798,0.0119646474655585,0.0083861218267806,0.0031636909267729,-0.0130057121664925,-0.0197769337942623,-0.0077677125013008,0.0094881415265717,0.0111413598317882,0.0094252153946924,0.0040753246565139,0.0053797263378036,-0.0055407623167746,-0.0177971044688509,-0.0067737747957928,-0.0010799709555231,0.0065944750283077,0.0037478975638443,0.0057588769376101,0.0058461663042493,0.0013968492482664,0.0018428183843904,-0.006190956676302,-0.0083932597650973,-0.0031607907203499,-0.0047002238060246,2.172161719456351e-05,0.0036954264468951,0.00845768627902,0.0104925925482406,0.0070480629569032,-0.0080445207987027,-0.0185371379067864,-6.037762754172489e-05,0.0037051283932295,-0.0011426734868088,-0.0005376137768845,0.0037715193939598,0.0141334210502794,0.0009088711189843,-0.0137916035809159,-0.0139817497848781,0.0069960527479377,0.016376613733907,-0.0018024500756076,-0.0086945283216112,-0.0006516085802334,0.0081116857490394,0.0049016146140267,-0.0052914939129936,-0.0130915564251975,-0.0160916583864791,0.0121875313196074,0.014580155097681,0.0052593601432136,0.0101337184921067,0.000503732300409,-0.0090728968518616,-0.0200447451830119,-0.0044598407186121,0.0071277421499834,0.0016344899962335,-0.0022270790512846,0.0034737542257543,0.0156619537011667,0.0050519542638374,-0.0074089020712265,-0.0046894207016764,-0.0003889865025201,-0.0068123292905114,-0.0025368287126234,-0.0047913831253163,0.0002757740340702,0.0047183222233421,0.0053191783094682,0.0170056665631006,0.0050622347905084,-0.013972584847198,-0.0193747872304968,-0.0019915967437016,0.0078337686990202,0.0085463047792633,0.0017752373737189,-0.0019378442595433,0.0007352658291754,-0.0066889752012151,-0.0055603885099857,0.0093776069983759,0.0090347742814041,0.0052082183402484,-0.0021252641260698,-0.0200721442162979,-0.0251952944083495,0.0161806619775784,0.0209951929210087,0.0155428067755694,0.0063796992076048,-0.0122660556226693,-0.0224052404616579,-0.0103177566495802,-0.0006457248129888,0.0105333617174426,0.0194179714651167,0.0049917324717396,-0.0068933282058639,-0.0069076929204106,-0.0080352028345165,-0.0007467498195336,0.003762943720294,-0.0007171856866594,0.0058770572919124,0.0141491076334228,0.0046600666232317,-0.0174116276225051,-0.0381010334718637,0.0040021506398969,0.0238126832091638,0.0231875500753594,0.0193249479366379,-0.0030045314764493,-0.0271371681738518,-0.0309712341128144,-0.0054673092076072,0.0119119290381746,0.0162595046997845,0.0157286343783031,0.0108334883524258,-0.0064516021651694,-0.0179176814650441,-0.0070218925070396,0.0015403210793694,-0.0018714476644964,-0.0013512375161732,0.0101225795035634,0.0078785574115432,-0.0040626539005105,0.001340232940698,0.0037213569590451,-0.0105634854882852,-0.0088880460261291,-0.0132800291275846,0.0132106776188772,0.0267106864261488,0.0087582682599109,-0.0158641809882076,-0.0112906579908398,-0.0096967759531485,-0.0010781464965859,0.0080379651779479,0.0001214733568724,0.0014177594052583,0.0083743724361439,0.0116138830109248,-0.0070293079741107,-0.0150582958959723,-0.0005273846531413,-0.0078736768643325,0.0119127875720849,0.0073966667519889,0.0074469292772783,-0.0091430817685249,-0.0162876538345452,0.0052774546236903,0.0073070837372052,-0.0037179754736876,-0.0029300203225861,0.0107720212728226,0.0071873530020834,-0.0019204869072668,0.0024470556947629,-0.0109884853827401,-0.0151770513453582,-0.0032309975137301,0.007841899756528,0.0020116284274019,0.0072773563370802,0.0041987524105764,0.0080101866601278,0.0069203822882145,0.0026126894474792,-0.0120908070379168,-0.0310433423793194,-0.0077364527626338,0.0132796881534912,0.0108034696699334,0.0066743396136679,0.0037092112005591,0.0089077674086133,0.0041659130808711,-0.0062301967132469,-0.006422113359946,-0.0058830005008024,-0.0154714005134121,-0.0095355829980047,0.0090751832581383,0.012125656519222,0.0109914441439081,0.0121316881975142,-0.0007627027667932,-0.0108544656473598,-0.0118139204548471,-0.0022564067227397,0.0044188119135493,-0.0007580661999185,-0.0047642172782074,-0.0011117321632517,0.0019207196554288,0.0095773415193835,0.0059714886661567,0.0011613212950918,-0.0022193790538277,-0.0034439327714254,-0.0061760162233094,-0.0051520942369536,0.0005847399329973,0.0014301746651185,0.002361283222566,0.0041435911934928,6.087204752306774e-06,0.0013319911171861,0.0034631747148098,-0.0041705206971838,-0.0069353515561807,-0.0004689874467621,0.0094765342926644,0.004331384416699,-0.0054493033766354,-0.00434111624768,-0.0020469206052331,-0.0081307578314414,-0.0009779835065319,0.0104265622500839,0.0091571072645734,0.0042691886224753,0.0025506879332939,-0.0062217070496811,-0.0072980274297582,-0.0053648534644487,-0.0071283888383169,-0.0005298122401252,0.0039785273785191,0.0029467379347376,0.0072669332590273,0.0113963206955336,0.0053048241089594,-0.0032586846612151,-0.0109416661890425,-0.0090715352858839,-0.0079104157706721,-0.0060530344953537,0.0043605720325209,0.0101374240371897,0.0112890441207078,0.0049068948883562,0.003240172379046,-0.0037031310171257,-0.0043237985188437,-0.0074349337379065,-0.0102976439985166,-0.0042635346506205,0.0050675219747743,0.0047566017462302,0.0053504703545565,0.0081541636736957,-7.210243786993682e-05,-0.0098180914890133,0.0064046460615843,0.0041594924248127,0.0009598273447329,-0.0048474691619248,-0.0103256708141709,-0.0176661357445935,-0.0044693734857491,0.017215239661517,0.020195780262569,0.0147504582234513,0.0014151960630215,-0.009691012318533,-0.0235389070717591,-0.0162775783033446,0.0084828376286346,0.0103716894476266,0.0014824618589288,0.000843067296945,0.0083007004884241,0.0064478637046758,-0.0024086179331861,-0.003289190995171,-0.0066763714114376,-0.0109337626744725,-0.0064407570023155,0.0029173471329464,0.0181044702805152,0.0158315050538405,-0.0038626667400028,-0.0116033882373863,-0.0120477646584681,-0.0084463182756503,0.007451056100562,0.0103253805003528,0.0050277129417502,0.0004554746571466,-0.0012151619580983,-0.0086747380675644,-0.0066584033810138,0.0120373717388971,0.0086877577105503,-0.0077984346861748,-0.0103566320135172,-0.0084960104720808,0.0079457636382537,0.0101032604512892,0.0074235707182934,0.0058302130937727,-0.0034211191747199,-0.0120259844974208,-0.020302512927777,-0.0003973862180025,0.0151762531264224,0.0147549131070272,8.010509588855246e-05,-0.003951986308803,0.0020838685707082,-0.0050775270951455,-0.0011155713305492,-0.0106104721615551,-0.0029216251801437,0.0046705734515153,0.005503967474938,0.0036854083027309,0.0035077988640941,0.0030861770803005,0.0027336895066622,-0.003448806968694,-0.0059204400504384,-0.0101920234165842,-0.0104813264950795,0.0007111063429902,0.0109306410832994,0.0139246465296641,0.00798632623542,0.0039783437244228,-0.0011375858116546,-0.0135546035844023,-0.0137425344929803,-0.0108275015691412,0.0021721892831088,0.0086024931089349,0.0088434570402608,0.0116719809377923,0.0062948441044058,-0.0042330019373928,-0.0073443271454639,-0.0056843973652898,-0.003709132932266,-0.0019713984563205,-0.0053813041226855,-0.0033170046107305,0.00263160277347,0.0141698022164088,0.0119207467292586,0.0067732692954346,-0.007451505690578,-0.0073647873113523,-0.006712057415922,-0.0101711621270965,-0.0142315569896631,-0.0015811707421863,0.0156641570574117,0.025500545855141,0.0164434327644943,-0.0005273340869582,,,
