-0.0057015644984367,-0.0036211173364533,0.0003369380148914,0.0041785661524164,0.0059996271944874,0.0049263061902421,0.0014896460328596,-0.0026789843110051,-0.0056297050264732,-0.0059812009129828,-0.0035329776522371,0.0006463258635914,0.0046799504457495,0.0066926711000579,0.00563822655882,0.0018123102470383,-0.003181090953204,-0.0070602451483902,-0.0078883726676722,-0.0025626934224411,0.0002292306225143,0.0054618965146987,0.00803492523975,0.0066452145446903,0.0019703651832906,-0.0036863944578075,-0.0075736855098362,-0.0078616659893393,-0.0045029835216559,0.0008160675749335,0.0055602152774665,0.0075890701009401,0.0061375867990769,0.0020782565059392,-0.0026049545569033,-0.0058107396107744,-0.0062722103218359,-0.0040361725664115,-0.0003086656516793,0.003189141745282,0.0050102329188001,0.0045584861940604,0.0022471578981589,-0.0007650016817125,-0.0031169363585091,-0.0038460544226704,-0.0027973496821154,-0.0006472537143313,0.0014788058893548,0.0025936091907557,0.0023187450063885,0.0009973475456996,-0.0005708101581112,-0.0015855187626896,-0.0016352936555227,-0.0008368966398213,0.0003003817855635,0.0011695640932898,0.0013537807848159,0.0007892320574628,-0.0002305631408241,-0.0011869128781673,-0.0015599001056167,-0.0010800849816196,8.933591879797971e-05,0.0013590445802541,0.0019793575848856,0.0014834544951377,4.691973472777595e-05,-0.0015288801640924,-0.0022797515555821,-0.001710281389935,-0.0001405652926564,0.0014992277126607,0.0022751503478117,0.0018116792318074,0.0004437803323054,-0.0010624659100614,-0.0019628596781104,-0.0018861352062611,-0.0009567487350815,0.0003088995409788,0.0012754834292464,0.001522914663056,0.0010701980108569,0.0003314783932137,-0.0001944938344368,-0.0002888367190615,-0.0001494407343105,-0.0001856837905803,-0.0006339948321321,-0.0013077607483319,-0.0016861670349434,-0.0012746146717748,3.0199130219843612e-05,0.0018118935741599,0.0032964666850923,0.0036919301046862,0.0025486238619367,1.6505871370577502e-05,-0.003094209901756,-0.0055195139552997,-0.0060148800485244,-0.0039573235730224,0.0001993579878916,0.0049121769337766,0.0081059771681319,0.0081189497682253,0.0045844987952992,-0.0012428877547243,-0.0069508393986103,-0.010031386584801,-0.0090266934134037,-0.0042089617880263,0.0025057911177123,0.0083518728593985,0.0108706828353061,0.008954412675113,0.0033407505510808,-0.0036705641334136,-0.0091796305411138,-0.0109126479198966,-0.0081724546386186,-0.0021107722562828,0.004766775129165,0.0096339015919425,0.0104935700941794,0.0069947969916359,0.0005906781861313,-0.0060427146523755,-0.0101092566951916,-0.0098690895704856,-0.0053926355052035,0.0014344803954776,0.0076765600869016,0.0105904917850952,0.0088401406540472,0.0031433033079478,-0.0039876139523841,-0.0093504536028303,-0.0105184981231543,-0.0069705411057055,-0.0003343331582864,0.0063757340572117,0.0101570309920518,0.0093876627550747,0.0045289223211797,-0.0021499211855189,-0.0076671463285025,-0.0096994141332032,-0.0075711364779844,-0.0024264003152884,0.0034237177801462,0.0075867961651767,0.0085608659907239,0.0061955053693361,0.0015689343706332,-0.0035246949811949,-0.0072166882470024,-0.0081558873638647,-0.0059499120662383,-0.0013506925066287,0.003930391216878,0.0078060540238813,0.0086358645722068,0.0059466920820957,0.0006814717242016,-0.0051903924215449,-0.009524447135654,-0.0108724042986401,-0.0064454039987637,0.0052176672182711,0.012720333971765,0.0067358700446324,0.0048235099502344,0.0019086047544457,-0.0031449911367246,-0.0078095313465223,-0.009566816075385,-0.0071345924248603,-0.0012027489258325,0.0057373324777274,0.0104917887289909,0.0107043777416563,0.0060594896153785,-0.0014866764349706,-0.0085784496585422,-0.0120060689453532,-0.0101791861860039,-0.0038501727538121,0.0042194101829176,0.0104807682323146,0.0121686423956299,0.0085431068191316,0.0012510643253021,-0.0063948006492691,-0.0109498744264996,-0.0104967779054791,-0.005613678945891,0.0008637709650152,0.0052073161639448,0.0046829266875659,0.0137322114240975,0.0102113613176002,0.0001803560101469,-0.0105616359428519,-0.0133193546043568,-0.0111707386766585,-0.0017976245414255,0.006351737511355,0.0101223095717516,0.0080783253980251,0.0012421601405439,0.0025807630430056,-0.0012576516649411,-0.0050925074398223,-0.0113925531873327,-0.0049642613542334,0.0015495454913301,0.0057612279473229,0.0065184664978588,0.0041352304997629,0.0001098674784881,-0.0010697082724915,-0.0028144423577936,-0.0046324554328143,-0.0022279506194786,0.0005218250139752,0.0023193895019937,0.0025273571930604,0.0013619105952277,-0.0003335966535207,-0.0015820540551531,-0.0017653129698485,-0.0008784462547312,0.0005436968405218,0.0017424386077598,0.0021076116755226,0.0014323094507822,-3.1057719013678035e-05,-0.0016912680832033,-0.0028401924033449,-0.0029067166329524,-0.0016919241780122,0.0004796564625495,0.0027881490226112,0.0041943301215092,0.0039077796945916,0.0018350177242244,-0.0012607227067111,-0.0040357960944261,-0.0051858792818552,-0.0041044796735419,-0.0012240714218727,0.0021655717868734,0.0045447690462442,0.0049055242493647,0.0032113715373118,0.0003501462818045,-0.0023543998159736,-0.0037837635094471,-0.0034983616550634,-0.0018564995739077,0.000228031824858,0.0017565549043247,0.0021304912889491,0.001422312020411,0.0002840511938741,-0.0004759706026508,-0.0004121203932899,0.0002753149782671,0.0009007354438128,0.0008039993198119,-0.0001496951541343,-0.001447781696819,-0.0022729281487127,-0.0020519895151913,-0.0008189697708574,0.0008342936754542,0.0021388960798545,0.0025771310988909,0.002095861064084,0.0010242654057549,-0.0001914396690097,-0.0012316367655319,-0.0019677337584035,-0.0023437431157557,-0.0022307272011515,-0.001442626391208,4.6922433387396875e-05,0.0018694572731415,0.0032759754217407,0.0034986714389731,0.0022535827240182,1.0793261882829072e-05,-0.0022042139568589,-0.0033782017128143,-0.0030793587324423,-0.0016559682655049,5.40758513197932e-05,0.0012831046947179,0.0017571628782115,0.0016978658906202,0.0014647336120965,0.0011832938361344,0.0006794565349433,-0.0002496860565798,-0.0014878837490755,-0.0024959823543729,-0.0025867200083085,-0.0014230254706275,0.000612003132154,0.002491610963358,0.0031121729436783,0.0020288552230518,-0.0001569274243354,-0.0021016341907319,-0.0025787515966275,-0.0013172327321313,0.0007867863029668,0.0022581952465836,0.0020352810152944,0.0001931194495444,-0.0020802587410748,-0.0032336886302604,-0.0023474524593611,0.0002503196252549,0.0031259795529954,0.004558591131493,0.0035514251109605,0.0004477509475047,-0.0032047130044527,-0.0054683860753604,-0.0050590162324122,-0.0020479370167056,0.0021482512724131,0.0054715525264078,0.0062441727891559,0.0039963112972425,-0.0002854460821854,-0.0045908620592991,-0.0068093308938507,-0.0057505109338105,-0.0017970095047128,0.0031761937224229,0.0066731762726999,0.0068624957536779,0.0035897432435532,-0.0014902050595857,-0.0057782314039349,-0.0071123209400821,-0.0048873789740498,-0.0003202592357902,0.0042343691344716,0.0065207495631976,0.0055229607407108,0.0019279371753514,-0.002317861147927,-0.0050959010161102,-0.0052222695394232,-0.0029542951401209,0.000330978756194,0.0029992667371667,0.0039951083696435,0.0032066541786807,0.0012880787486438,-0.0008129345957739,-0.0023005321473781,-0.0027601219031955,-0.0021705703047928,-0.0008117691267883,0.0008266807000909,0.0021279586547401,0.0025023514867664,0.0016574687809896,-0.000134367235708,-0.0020136123995557,-0.0029035181185627,-0.0021335651752173,6.610017848408444e-05,0.0025616068999519,0.003879064831591,0.0030510706355404,0.0002605216903741,-0.0031234819416256,-0.0051998004818484,-0.0045722980312893,-0.001221558631429,0.0009219191901594,0.0067136678991249,0.0070729264857587,0.0040542682025135,-0.0008996043705146,-0.0053064273617177,-0.0070189418073399,-0.0054017138262005,-0.0015748547022724,0.0023850158428052,0.0047030321208352,0.0047841021911177,0.0032221692157728,0.0011101044037688,-0.0007309976843017,-0.0020529096631594,-0.0029279437382372,-0.0033143744068699,-0.0029035623300005,-0.0014092762827622,0.0009652160816975,0.0033410053885085,0.0045214235671576,0.0037209235436225,0.0011587448617599,-0.0019435831241019,-0.0040142406627138,-0.0040263460971499,-0.0020704436016129,0.0007253678657432,0.0028398455131881,0.0031807573061004,0.0016542580193642,-0.0007917520397122,-0.0026745925661372,-0.0027983366974601,-0.0009684414635482,0.0018192019060291,0.0038812106451355,0.0038067860307938,0.0013343888013097,-0.0023882260580954,-0.0053564781377029,-0.0057988489102336,-0.0032012519979782,0.0013254952347104,0.0055693899790015,0.0073622880165989,0.0057195346247421,0.0013512208760221,-0.0037138977438554,-0.0071506217501382,-0.0074393920194712,-0.0045107582567326,0.0003028909573129,0.0049038632963251,0.0073424406010454,0.0066355317487775,0.0031668151392952,-0.0015035805561507,-0.0053466930238725,-0.0067710250702802,-0.0053043032904632,-0.0017407708850079,0.0022847751655782,0.0050633320443525,0.0055516502900683,0.0037624994849154,0.0006588340958914,-0.0023630894788794,-0.0041266816905881,-0.0041386349673965,-0.0026684001554076,-0.0004840495063007,0.0015418525844455,0.0027498891885097,0.00533873257302,0.001851351623388,0.0001214445462268,-0.0017617334848103,-0.0030852829802536,-0.0032858820829045,-0.0022200401379702,-0.0002729828458992,0.0017650369942991,0.0030260972946355,0.0029653873099397,0.0016443382964564,-0.0002701582220572,-0.0018292038769689,-0.0023054102874934,-0.0016021216565817,-0.0003086979330723,0.0006720729547585,0.0007253446627497,-3.405899865885494e-05,-0.0008142015266029,-0.0007147538522153,0.0005520120079414,0.0023187699014929,0.0033060985015722,0.0024722421555638,-0.0001954439783955,-0.0035034311289157,-0.0056472379549902,-0.0052354918888333,-0.0021326312948963,0.0023701104433054,0.0061523659568172,0.0073174474148831,0.0051670897550304,0.0006041784428836,-0.0042666877208193,-0.0071747372221374,-0.006827622538801,-0.0035381650493046,0.0010108548354259,0.0046956990247987,0.0060148529658595,0.0047115101163663,0.0017057159594935,-0.0015048417748085,-0.0035835624227495,-0.0038740928702857,-0.0025427238448122,-0.0003884906107916,0.0015400378313667,0.0023817778056389,,,,
0.0014212206659355,0.0016108445361349,0.0015578403286885,0.0009834141128064,-0.0002279964617176,-0.0018241340834677,-0.0031820031259746,-0.0035543990988354,-0.0024622295499931,-3.392728278737308e-05,0.0029036645771547,0.0050851308557447,0.0053578333976002,0.0032886927200512,-0.0004989160202677,-0.0044896057861417,-0.0069147754613496,-0.0065692951880554,-0.0034022898792004,0.0014072477436325,0.0059234930603093,0.0082581630259776,0.0073577782723705,0.003448679746352,-0.0020346354250123,-0.006996017616475,-0.0094691827987071,-0.0083547828988173,-0.0038612528085552,0.0024841815095844,0.0082898252540523,0.0111433898449123,0.0096061299432827,0.0039584942236849,-0.0037088455099311,-0.010227642332385,-0.0126844298618613,-0.0097899094947083,-0.0026172868076127,0.0057460596578086,0.0115845062086591,0.0123390794703673,0.00784850206607,0.0003577148174773,-0.006691679525957,-0.0103791995866233,-0.0095882477842426,-0.0052535844876296,0.0003876153522537,0.0049971388968372,0.0071307198484776,0.0066063172148942,0.0042174654054751,0.0011012320713791,-0.0018088511243176,-0.0039710652959777,-0.0051049760313537,-0.0050082976485134,-0.00355998736766,-0.0009204771699508,0.0022800158018676,0.0050040392086225,0.0061811938882668,0.0052153446394492,0.0023286612591043,-0.0014700193215494,-0.0047896923730074,-0.0064296817316968,-0.0058434386783278,-0.0032996656199013,0.0002854227125579,0.0037233483458077,0.0059552054637904,0.0063343939135832,0.0047422520868614,0.0015837516280867,-0.0022765932614253,-0.0056559932314792,-0.0073458503429605,-0.0065526410627035,-0.00331682418249,0.0013508590908218,0.0057726938239499,0.0082562695289521,0.0077907338916369,0.0044594288685732,-0.0005898856157841,-0.0055639471929282,-0.0086557766573995,-0.0086835811286471,-0.0055371557059446,-0.0002661976881412,0.005254692730454,0.0089877487681375,0.0094820092886417,0.0064353705288812,0.0008640667875943,-0.0052004812386956,-0.0094250319989491,-0.0100790222415347,-0.0067833962695387,-0.0007551468265894,0.0056195051240104,0.00974878393282,0.0099339105585391,0.0061124562655453,-9.877157584141776e-05,-0.0060935054789797,-0.0093982806335906,-0.0087315841607859,-0.0045328847226134,0.0012691939761822,0.0061419255259735,0.0080859572963842,0.0065047278189558,0.0024000487314377,-0.0021953184219884,-0.0052533346598933,-0.0057108361227849,-0.0038559879952425,-0.00097387994975,0.0039666084851739,0.0025474215849411,0.0021959052516194,0.001011291493079,-0.0002042865014316,-0.0008972556000024,-0.000932671557103,-0.0004980639002269,7.177666559458155e-05,0.0004284236209064,0.0003168553607741,-0.0002974151829346,-0.0011268226857261,-0.0016147355591957,-0.0012150211059086,0.0002118604885081,0.0021494498199226,0.003557446318678,0.0033985068707447,0.0012997851862443,-0.0020491874783893,-0.0050649265258532,-0.006013597922809,-0.003990316890956,0.0004141796543026,0.0052151256482055,0.0079560400483465,0.0070044532886029,0.0025054821903077,-0.0035636856370211,-0.008305695020611,-0.0093291203573038,-0.005968024953494,0.0003287494987885,0.0066552358148398,0.0100397586610099,0.0088740970575327,0.0036703589459085,-0.003201091826821,-0.008625527361334,-0.0101669551769534,-0.0071673537831253,-0.0010480903806001,0.0053444789246291,0.009097058166856,0.0086507068934597,0.0045237106090587,-0.0010834540401268,-0.0055520042631698,-0.007192507183266,-0.0058908988504627,-0.0027937161193545,0.0005845130516281,0.0031600353055355,0.0045342613438881,0.0047382001444837,0.0038523569475796,0.0018835183720582,-0.0010108828151966,-0.0041928607013548,-0.0040061828653492,-0.0067499582583878,-0.0044084657735898,-0.0001128728537034,0.0044801010566382,0.0073750695699809,0.0071958473374465,0.006400844852801,-0.001175662835223,-0.0059451579458035,-0.0084755134259908,-0.007789126033257,-0.0042227096264484,0.0008006746239083,0.0054202578921284,0.0080504028919664,0.0078611723886917,0.0049317487697877,0.0001616575749403,-0.0049446722813211,-0.0086067665450903,-0.0092750372843082,-0.0062847537931361,-0.0003909796560989,0.0062238338131936,0.0107034381625509,0.010811397118925,0.0061255582384023,-0.0015548296529521,-0.0088949318409315,-0.0125272407745806,-0.0106520176660671,-0.0039465713470617,0.0046722858242952,0.0113373574250918,0.01298804345234,0.0087984160729869,0.0006113788987353,-0.0078605802191876,-0.0127404656451556,-0.011809940145846,-0.0055652852266705,0.0030237332842703,0.0099430946824067,0.012054181985397,0.008568314841091,0.0038430805752417,-0.0061485389551494,-0.0105726867239373,-0.0102495255507621,-0.005749062987262,0.0005960412690032,0.0059347009269388,0.0082264705828604,0.0070140340685729,0.0033614971109911,-0.0008833985095589,-0.0040466936081348,-0.0052995748250865,-0.0047516227507054,-0.0030465874283055,-0.0008437421646756,0.0014234577067405,0.0034140992258183,0.0046261469556793,0.0043882818895006,0.0022444446798152,0.0009916551374195,-0.0007262394442385,-0.0083549981785303,-0.0082412027453047,-0.0048786944513964,0.0007022493013887,0.0062755813217951,0.0093592851279673,0.0084293032149037,0.0037353257464301,-0.0027416414993537,-0.0081804602372667,-0.0102088734324666,-0.0079577761843622,-0.0023985643593686,0.0041408447416342,0.0089996172826574,0.0102686377982355,0.0075039222902234,0.0018375481370917,-0.0045098523345036,-0.0091077164580718,-0.0102424757357353,-0.0075360227815826,-0.0020376403428395,0.0042027519337154,0.0088851395793481,0.0102626609103553,0.0077466482387682,0.002141890345855,-0.0020756575876498,-0.0074395897926923,-0.0119219693988837,-0.0097024852342644,-0.0039874720833373,0.0031883479316112,0.0091557118938723,0.0116200540944934,0.0095928994642841,0.003835617175683,-0.0033959319183814,-0.0092308305814164,-0.0113494351808646,-0.0089549593608198,-0.0031148847481166,0.0037077105755473,0.0087374195056158,0.0100815529667429,0.0074773313431455,0.0022710223732356,-0.0032959245704315,-0.0071001926054304,-0.0079703391129111,-0.0060060115984626,-0.0023166065461269,0.0016131947068293,0.0045645231935029,0.0059174362245691,0.0056047224888853,0.0038730909888418,0.0011123975614675,-0.002134268004398,-0.005088505734596,-0.0067927510301617,-0.0064134843436069,-0.003682720634011,0.0007867328166948,0.0055477102317025,0.0087747410588074,0.008968286901491,0.0056318496347828,-0.0003552445811511,-0.0068717132309208,-0.0112498050874315,-0.0113595842485589,-0.0066644844748917,0.0012822139001243,0.0092726224045329,0.0137585958842154,0.0124998196793752,0.0057380862254521,-0.0037467709251571,-0.0118088325194011,-0.0148186992876148,-0.0113636286599754,-0.0029466766001166,0.0066621783892713,0.0131437001915559,0.0136330628457198,0.0080613585361813,-0.0008336440049263,-0.0088541089200644,-0.0123791225695467,-0.0100684127899953,-0.0033945078384813,0.0042167630728745,0.0091468144166599,0.0093278945828636,0.0051174026864125,-0.0010594714445053,-0.0060349294157061,-0.0074855052373202,-0.005003372570133,-0.0001694052193877,0.0043540009503444,0.0062206310359542,0.0045750552983535,0.0004246935631549,-0.0039465278382536,-0.0061909703062024,-0.0051034052326632,-0.0012129486648225,0.0035177002961977,0.0067012491403408,0.0067082095426197,0.0034379432552532,-0.0016575258685129,-0.0062596783535021,-0.00823952861565,-0.0066131238451118,-0.0019871082323863,0.0036934480978836,0.0079835435295648,0.0089994408033927,0.0062435716312916,0.0008343089525449,-0.0049663879463914,-0.0087310184379973,-0.0089218627734338,-0.0055448796392844,-9.996336308348724e-05,0.0051382690032299,0.0081452131515437,0.0079710667947681,0.0049935565291528,0.0005582515242765,-0.0037098999627579,-0.0065243140426718,-0.0072274547900316,-0.0057674880575369,-0.0025585627672427,0.0016025600693848,0.0055716209859845,0.0080085229861634,0.0077833582186821,0.0045545943570192,-0.0008082113972129,-0.0063264842536319,-0.0096532506759556,-0.0091605082211141,-0.0048098887011151,0.0016954471446737,0.0076124438847665,0.0103930574813741,0.0088482107366772,0.0036750810055983,-0.0028878978893402,-0.0080820048432227,-0.0098265751168708,-0.0075580679476625,-0.0023797036399323,0.0034861261913025,0.0076647539710839,0.0085956847839918,0.006112097337154,0.0014218173326649,-0.0034733549588704,-0.0066492070417765,-0.0070311729570357,-0.0047408611128041,-0.0009149047308253,0.0028534806647189,0.0051676142296866,0.0053242746192319,0.0035146216277328,0.0006843934766394,-0.0019070511875208,-0.0032669595746504,-0.0031129962553139,-0.0019302495522112,-0.000600769400065,0.0001677666795604,0.0002551928244856,0.0001263242264546,0.0004280684901703,0.0014610223984655,0.0028709677967607,0.0037554018540728,0.0031272254207137,0.000476114750609,-0.0038801683894919,-0.0088266368193098,-0.0127784801981746,0.0005365025464608,0.0098563250017492,0.0097060703676923,0.0027968901745515,0.0012299555391655,0.0013412183023702,-0.0011535944789208,-0.0043400595918695,-0.0062017546985708,-0.0056415191641105,-0.0028482726018989,0.0010185739246071,0.0044890350211822,0.0063772892773324,0.0061040852078307,0.0037764240755237,0.0001275208186597,-0.0036564021033548,-0.0062600064828644,-0.0066897816811305,-0.0046945948694712,-0.0009371337945389,0.0032100615465801,0.0061805397009667,0.006824873673472,0.0048713731702843,0.00106538651353,-0.0030820285470173,-0.0058890829695613,-0.0062350841208087,-0.0040822484749203,-0.000480916899828,0.0029702698247353,0.0048999406496395,0.0047378591084951,0.0028249127154629,0.000108374043598,-0.0023292115817822,-0.0036676816680427,-0.0035598634225228,-0.0021582124178846,-1.3815355641187294e-05,0.002097811804818,0.0033947834011898,0.0033316437671411,0.001823561550525,-0.0006336314058676,-0.0030516535325839,-0.0042990604754538,-0.0036257289294694,-0.0011138167041581,0.0022377977167336,0.0049157855442334,0.0056000542694614,0.0038001742284286,0.0001052999705423,-0.0040347620061443,-0.006873901918664,-0.0070655186710296,-0.0042513944631683,0.0006875669748966,0.0058671948423538,0.0090916768952176,0.008766303950451,0.0046679286665142,-0.0017884135305893,-0.0079937523075316,-0.0112091265577522,-0.0098186203167381,-0.0041655820591034,0.003483104620322,0.0098770807170301,0.0122118788839373,0.0093993808089769,0.0025981933969912,,,,
0.0196284733920716,0.0154659844105661,0.0052071826737319,-0.00665170228758,-0.015166453891229,-0.0170083658877535,-0.0117766420802331,-0.0020420966621702,0.0078613992966904,0.0137633164487526,0.0134547541084207,0.0075554877148317,-0.0009267147266081,-0.0080951448131093,-0.0109781915391739,-0.0088028547638221,-0.0031636934288907,0.0029402922478446,0.0066801644069672,0.0067555342602372,0.0038363626554192,-7.699308789671387e-05,-0.0029091849647541,-0.0036005841400233,-0.0024441975874061,-0.0006032618248349,0.000762791577884,0.0011647850335412,0.0008643186829656,0.0004353537327479,0.0002278017299649,0.0001599322567646,-5.901158704904079e-05,-0.0005401988380481,-0.001027110578607,-0.0010664462024534,-0.0003902445194149,0.0007980649599591,0.0018656027578718,0.0021189483650911,0.0012641062509232,-0.0003607308348732,-0.0019565657709652,-0.0027350839324612,-0.0023694805993916,-0.0011212292717089,0.0004133296241724,0.0017030752702566,0.0025031246353904,0.0027649278031041,0.0024108691643349,0.0012752786665191,-0.0006668862551266,-0.002981076417797,-0.0047180764135543,-0.0048126674848665,-0.0027570738698163,0.0009045394705789,0.0046594945531687,0.0067247700347002,0.0059851840346816,0.0026238578252356,-0.0019263635788805,-0.005681134983246,-0.0070574365137293,-0.0055746085481045,-0.0019820667097744,0.0021743351399064,0.0052671659923304,0.0062295763492256,0.0048804101835698,0.0018772891465108,-0.0016045038669005,-0.0043126926710488,-0.0053390648209408,-0.0044109207321759,-0.0019671493640121,0.0010186241030469,0.0034179823982081,0.0043896506315955,0.0037016730232719,0.001790704686406,-0.0004741888933528,-0.0022124264215349,-0.0029212114432407,-0.0026258237436458,-0.0017257164118819,-0.000667285991741,0.0003139280095513,0.0012047185687115,0.0020089376409647,0.0025414578805463,0.0024408470234606,0.0014279428148244,-0.0003854224099608,-0.0023944532655308,-0.0037205756210579,-0.0036464594845892,-0.0020245033444976,0.0005704054828599,0.0030451339469771,0.004279657706576,0.0036825226001253,0.0015180679803801,-0.0012014947437119,-0.0032281847154529,-0.0037117101223836,-0.0025925198859633,-0.0005512869927327,0.0014105698236851,0.0024844153980209,0.0023833832649802,0.0013662688914045,1.8428129335324552e-05,-0.0010555611862394,-0.0014832693764043,-0.0012338711207964,-0.0005639838158562,0.0001553275188795,0.0006292493625024,0.0007439965502409,0.0005522943830229,0.0001923759425441,-0.0001836622708553,-0.0004429378907649,-0.0004891522565573,-0.000293283611312,6.852208415561566e-05,0.0004134873333965,0.0005285683346231,0.0003087067862765,-0.0001341515372512,-0.0005003634897914,-0.0004939579720508,-5.936314531576715e-05,0.0005197217395966,0.0007449723809812,0.0001471538545282,-0.0015454372645523,-0.0019104200303782,0.0013310869388492,0.0032405765859213,0.0011395130391345,-0.0075001693156641,0.0050983039739169,0.0017336210560996,-0.000811775782232,-0.0008447511511458,-0.0027458195952781,5.417019049252042e-05,0.0007249011470594,-0.0011189550617205,-0.0009450676402049,0.0042441575624345,0.004442498673344,0.0011318057164713,-0.0031704176115261,-0.0059130032261736,-0.0030537100677619,-0.0022406060921586,0.0022839867471155,0.0056165213277874,0.0059643454205348,0.0030759644500026,-0.0016113790709463,-0.005678735636553,-0.0069602519362878,-0.0046902491741975,5.419203379074108e-05,0.0048918576785388,0.0073853108069658,0.006301328476586,0.0021944732696823,-0.0029449168294738,-0.0067094270712005,-0.0074019321092275,-0.0047563262034318,9.14947487311136e-06,0.004766742311617,0.007410544747736,0.0067616642585038,0.0030863796750873,-0.0019935023455679,-0.0061891296209373,-0.0075619078654113,-0.0054207979361281,-0.0006767169780805,0.0045203919554365,0.0077009334462257,0.0071585878980623,0.0027688256331428,-0.0037691537630152,-0.0094030073214868,-0.0108455256813153,-0.0060517125747793,0.0044287805461689,0.0167599573975089,0.0241608809400484,0.0183415482055838,-0.0081388746699382,-0.0586832569270669,-0.0607051552714654,0.0110137890885465,0.0571363981365808,0.0572232629210524,0.0315187191282907,0.001647855082554,-0.0264427915407265,-0.0607449091750491,-0.0905146387326663,-0.0145121229587234,0.0568255557478168,0.0737333051799406,0.0626638736179081,0.0357082881622937,-0.0083069000934099,-0.0764209956671367,-0.1657206902588662,-0.0108187134361836,0.1147191228565315,0.0918498735090059,0.0255765009875729,-0.038567558964797,-0.0399925732009794,-0.0464384991467268,-0.0235313845056301,0.0497908578184406,0.0652472485878872,0.0377083266898837,-0.0415052383307117,-0.1615364590976696,0.0324099712001029,0.0776500660519143,0.0141443500113944,0.0430338749841426,-0.0045416713256522,-0.0134871957049325,-0.0212038817103605,-0.0140508089472525,-0.0589722464929775,-0.0392519026924819,0.0307357880413442,0.1285791167142131,0.070872747813595,-0.0550974208231086,-0.0616769195615138,-0.0645216953935631,-0.0509220749380539,-0.0183327478740203,0.1097456597482698,0.105475505418932,0.0150241264417131,-0.0478024415146322,-0.0389363025471154,-0.0614873439136764,-0.0943475554487448,0.0235983279593199,0.0622106567085228,0.103213939110071,0.1015491910086322,-0.0174712905252848,-0.1268524162542691,-0.0822867258012113,-0.1176882098117475,0.0851713327023975,0.133486204441776,0.0526092514370289,-0.006145770206058,-0.0397822721067551,-0.0305054149084865,-0.0335083415806385,-0.0083626959915864,-0.003259463421527,-0.0241108159430873,0.0431916446846964,0.0616634237879193,0.0406186886660543,-0.0292828604797389,-0.0961792886090024,-0.0339884147774579,0.0433427879863728,0.0470072517650308,0.0034375337620596,-0.0253753922754592,0.036636574651856,0.0193017015113471,-0.0697789871614468,-0.0286526815376711,-0.0079265438320357,0.0513141492448152,0.0533866224866694,-6.348678584938483e-05,-0.0217157673422952,-0.0326494801286705,-0.0506131826194075,0.0022897233514108,0.0734968477229721,0.0203373480042309,-0.0242499412166339,-0.0303881069628201,0.0121169335505135,0.0073629492964754,-0.0021374056713242,0.0234424536708557,-0.0223553158058041,-0.0644617959256071,0.0072409013208701,0.0743129758485132,0.0477654356112452,-0.0011446386603373,-0.0559452590605584,-0.0705539656559614,-0.0177773961933741,0.0465695620721129,0.0494154004017997,0.0210959986817339,0.0078714169642257,-0.0053520668755572,-0.0362498005103157,-0.0483103171085567,-0.038243851459472,0.0395677203439125,0.0600570065670819,0.0314491250101237,-0.0024057971185308,-0.0230524444928336,-0.0300485830961799,-0.0218990624288503,-0.0069511047556697,0.0074581544685445,0.0145553194807686,0.0191050646815688,0.0132997525639502,0.0042273068475029,-0.0107658454128795,-0.0064431867326054,-0.0087778814552798,-0.0100688531994606,-0.00840195574535,-0.0004106031668727,0.0086766175863911,0.0094650439888486,0.0117115470851264,0.0088183007408355,0.0013176308885926,-0.0067308248070748,-0.0118028316682344,-0.0120418285370871,-0.0076651696477767,-0.0006194823295089,0.0063010515734538,0.0105288389265664,0.0106349021020985,0.0067943239552398,0.0006540688694236,-0.0053492818256095,-0.0089589525889131,-0.0089655050175794,-0.0056265681397378,-0.0004856261995595,0.0043181279192661,0.0069572290130876,0.006656899676087,0.0039415427411874,0.0002728490851356,-0.0027312587652184,-0.0040747653862279,-0.0037362560196928,-0.0024374447994205,-0.0010386608206057,4.932301845686552e-06,0.0007734434046871,0.0015679784675486,0.0024511233270223,0.0030388267103868,0.0027318788010812,0.0012179838242031,-0.00115261187912,-0.0034318836585794,-0.0045630968833744,-0.0039644938427524,-0.001826380991993,0.0010273290842303,0.0035571598191703,0.0049184457579352,0.0046831210119516,0.0028857010858176,-5.8861117826241236e-06,-0.003157439185073,-0.0055298522924152,-0.0061797553199196,-0.0046301068715722,-0.0011464654423127,0.003227569157822,0.0069254165459878,0.0083627181681718,0.0065795681759259,0.0018064800508158,-0.0043510904700418,-0.0093601168623569,-0.010806402366118,-0.0076150342355707,-0.0007911137450339,0.0068233934458132,0.0117820706211012,0.0116926296641178,0.0064471219859004,-0.0016526495770699,-0.008976779161278,-0.0123001618885307,-0.0102847949065604,-0.0039940872520944,0.0037130706991207,0.00951327985246,0.0110429941046437,0.0078519263153893,0.0015357910195524,-0.0050124734786114,-0.0089346956014667,-0.0087119156950651,-0.0047950315440223,0.0007435352787952,0.0053124716904712,0.0070496263589546,0.0055859384143939,0.0020110585625071,-0.0018341330065947,-0.0042968186390168,-0.0045989660178723,-0.0030009781725466,-0.0004830731206148,0.0017970032232677,0.0029836696517252,0.0027770798373648,0.001448470790325,-0.0003190363365662,-0.0017062025595417,-0.002097111374994,-0.0013754443881458,-1.1738645126633644e-05,0.0011733554576062,0.0014900996961815,0.0008137569762449,-0.0003428256105461,-0.0011901772174779,-0.0011972295412526,-0.0004128415910868,0.0006273581259098,0.001290379224356,0.0012320348608814,0.0005435432824173,-0.0003743243594328,-0.0010723496366701,-0.0012753156414181,-0.000967429838645,-0.0003404276560191,0.0003372935239003,0.0008518871189694,0.0011049242202817,0.0010823177174251,0.0007853132253368,0.0002115115407142,-0.000580131087709,-0.0013829908377187,-0.0018436267185888,-0.0016077234258495,-0.0005580835795171,0.0010029534858332,0.002385753387337,0.0028181930452369,0.0018987514909067,-7.844524648358124e-05,-0.0021845210944336,-0.0033313095465542,-0.0028926802924185,-0.0010737554856993,0.0012106208410642,0.0028562503081501,0.0031507279894487,0.0020818113163722,0.0002491450070992,-0.0015038282962557,-0.0024974926746335,-0.0024609263026419,-0.0015507573090516,-0.0002062863548605,0.0010568453562277,0.0018336931451682,0.0019447355751304,0.0014513825577345,0.000585226806007,-0.000359580163892,-0.0011192311157092,-0.0015155441328861,-0.001479564915696,-0.0010561704922218,-0.0003885143350809,0.0003293885074207,0.0009247316917515,0.0012992790126629,0.0014198493184843,0.0012606354947828,0.0007747799168038,-4.384052115288957e-05,-0.0010486098393794,-0.0019037266307868,-0.0022122769096699,-0.0017498364496825,-0.000626659580584,0.0007560887591995,0.0019180761093808,0.0025101808496186,0.0023912088149339,0.0015876898276964,0.0002486516926041,-0.0013377374795989,,,,
0.0063617956663414,0.0046485046561477,0.0013286999510658,-0.0028356937655139,-0.0066143179693674,-0.0085313846154179,-0.0073902323837,-0.0029837883049445,0.0034029473011433,0.0091779208994273,0.0114912588715007,0.0087455840662836,0.0017088829710717,-0.0065609479382966,-0.0121222802365664,-0.0121862898298781,-0.0066286899971149,0.0019054004455523,0.0093595512144401,0.0123147288472922,0.0096268184587109,0.0028488140646683,-0.0046837387590366,-0.0095513267355529,-0.0098440335815361,-0.0058956353048189,0.0001023424376806,0.0053025671901517,0.0075680044093648,0.0063492640316505,0.0027180108414763,-0.0013617517259946,-0.0040770696654515,-0.0045685944817424,-0.0031357276623194,-0.0008537214043238,0.0010901517794839,0.0019635119548936,0.001720671285475,0.0008708485383672,0.0001088309497753,-9.713787381660916e-05,0.000238335824571,0.0006545424471945,0.0005724600784412,-0.0002659921496992,-0.0015328240403455,-0.0024369340621558,-0.0022058266383907,-0.0006350687406695,0.0016650185951974,0.0035177126363773,0.0038055384441928,0.0021269358093813,-0.0008856188174652,-0.003788249651914,-0.0050198717708347,-0.0037393454064343,-0.0003626074829977,0.003526911404859,0.0059125514585954,0.0053917554078388,0.0019945124717618,-0.0027095317309079,-0.0063489661422818,-0.0069815262031561,-0.0041417879933993,0.0008870977716867,0.005714980544885,0.0080237913021219,0.0066648813422932,0.0021721010080881,-0.0034870601832696,-0.0077761931154531,-0.0087085583183858,-0.0057603328778154,-0.000161894343397,0.0056174585189366,0.0089936025335402,0.008466470279516,0.00429825101515,-0.0016505341815723,-0.0068074667261904,-0.0090359460957196,-0.0075129347098023,-0.0029908853363344,0.0026044663182496,0.0070207985816416,0.0085914784319655,0.0068264014128698,0.0024540859002992,-0.0030384530955285,-0.0080695997130176,-0.0114432897653211,-0.0050608672140899,0.0061785861323827,0.0073692776940758,0.0018827439115142,0.0003783173345564,0.0017914115279084,0.0012173988740811,-0.0004907306447028,-0.0021837218879759,-0.0029591477473479,-0.0024856687415717,-0.0010349892841132,0.0007354996430042,0.0021064264128467,0.0025653842840125,0.0019362124885217,0.0003909770244042,-0.0015830709697674,-0.0032282125448754,-0.0036185710254661,-0.0019132690721965,0.00216637071835,0.0101235818007118,0.0113922727753448,0.0079867782025529,-0.0095975476188498,-0.0372810691879886,-0.0433802135748217,0.0323017421783108,0.0521070309308261,0.0271117250361853,-0.004106805466836,-0.0216966431945277,-0.0256808193886854,-0.0161082394197166,-0.0066949130478618,0.0003881137882043,0.0152446186795261,0.0175395108036092,-0.0003250060387659,0.0238597753054796,0.0065970221153157,-0.0302679322997679,-0.0069384817661927,-0.0055782217316603,-0.013574085595116,-0.0030420358620668,0.0047863314488795,0.0195745476211761,0.0231019091325883,0.0072799331571305,-0.0101301167176466,-0.0281283330176061,-0.0251703313707,0.0231142881203394,0.0248890065227447,0.0021876323600989,-0.0231665175156659,-0.0145259564129431,0.0096132706862189,0.0194178099739152,0.0118584727800044,0.0004694862934475,-0.0211875910002582,-0.0420673899496773,0.0062723094607648,0.0497867861932976,0.0330111552399253,0.0121666050299582,-0.0446452849421154,-0.0931602678557044,0.0003132318005663,0.075720984221915,0.0637031301955217,0.0020653742755941,-0.0445928516707158,-0.0652495166069615,-0.0109295478973907,0.0618134194186735,0.0375661279139771,-0.0082088934954158,-0.0277559558845092,-0.0223761413747449,-0.0299604396681443,0.0098986861684991,0.0508761571522014,0.0109008187463,0.0097276972865731,-0.0036746617445313,-0.0021107560729732,-0.0590585093987649,-0.0063029769225798,-0.0173334249695116,0.0095511708754987,0.0720037664209952,0.027529737024087,0.0004512509388119,-0.0331293213571851,0.0096438342448507,-0.0770343187237167,-0.0873288697964849,0.0916527163152924,0.0850704181210757,0.0247678552650247,0.0017357392277891,-0.0256545551633811,-0.1322460288531411,0.0147984169929276,0.0613432468095787,0.040557360681563,0.0142665722539527,-0.0300327255637029,-0.0080338407597557,-0.0403269347286691,-0.0099952528356437,0.0253813165877845,0.0644949516271718,0.0375949085179588,-0.0785508988151443,-0.0388464443422101,-0.0057051285564905,-0.0279469063398774,0.043899173222613,0.0679264546765407,0.0207740568634177,0.0270785575968094,-0.0776545939943561,-0.1002441148775425,0.0062921118518541,0.0356716972710052,0.0597560095415554,0.0148922241269747,0.0312844932140269,0.0071333357048661,-0.0640393529086917,-0.070146864086172,0.0041457593732062,0.0529948789447718,0.0115822378980704,0.0217840405896625,-0.0037038181991899,-0.0112688784175725,-0.0048678560840699,-0.007919714020305,0.0036304715911072,-0.011350183082561,-0.0232774648151128,0.0106198849341695,0.05610448205332,0.0133043716922117,-0.0506754570587259,-0.010144172409748,-0.0036115880854783,0.0172247335828482,-0.0081302316664253,0.0094046285939566,0.0105715797387078,0.00962530876904,-0.0323738830419059,0.0009003326649811,0.0082946649706096,0.0081267574452022,0.010199109287265,0.0022081590716911,-0.0325672870367108,-0.0175065679470194,-0.0051271498666163,0.0359605441664056,0.0364337916627425,0.0161998300186155,-0.0096083454892512,-0.054726092129248,-0.0428570979123247,0.0073710762058784,0.0336881907670554,0.027453657380335,-0.0002648843044909,0.0270940553569055,5.280312745876198e-05,-0.0233381404975664,-0.0339735909222066,-0.046589796097155,0.0184241264770646,0.0579272407948809,0.0154085768921385,0.0237914950921022,-0.0219919520522664,-0.0453746288171429,-0.0252661723426333,0.0128943429209259,0.0031532565875198,0.0406618501479599,0.0247076281910383,0.0009094491319991,-0.0133147380236772,-0.054532242638917,-0.0481194115304776,0.0363509904285062,0.0638971792419355,0.0397391074913481,-0.0289927886782768,-0.0632851985833392,-0.0202610027904071,0.0024810837279772,0.0647544636157451,0.0509397473694297,-0.0087912056375202,-0.0691621101593917,-0.0603595406404156,-0.0045287638284022,0.0295419180076418,0.0633405087406546,0.0450649438214576,0.0077502799532109,-0.0342922882356199,-0.0590508303397516,-0.0290395338230356,0.0004758889308723,-0.0020463206012447,0.0272835294397196,0.0583562623285415,0.0354859992863487,-0.0100878642106864,-0.0623729077496827,-0.0471799949215477,0.020897808784919,0.0235962450640826,0.0018677832299754,-0.0101082270025884,0.0087814601259804,0.0153011602227619,0.0085340982049133,-0.0026484919519511,-0.0108038366796847,-0.0104498726747592,-0.0075420095391787,0.0023518150358437,0.0033128418243656,0.0011753924070372,-0.0004978099841189,0.0039749185740972,0.0062265730773226,0.0054033529687821,0.0020513225401576,-0.0079489494896623,-0.0041932330285612,-0.0018075874065297,-0.0051207635029974,-0.0038281313288904,-0.0030186686946217,0.0059148577915643,0.0102467204584841,0.0090933808800765,0.0037866454137095,-0.0028852936155766,-0.0079444248902153,-0.0094357188608676,-0.0070805652629154,-0.0021633951154194,0.003188675153789,0.0069354189194389,0.0078612442127107,0.0058947136404673,0.0019885999207614,-0.0023246657766889,-0.0055220110340193,-0.0066182743042257,-0.0054515727962281,-0.0026368112751483,0.0007591591039409,0.0061295290685613,0.0051237358998029,0.0048130713014476,0.0028049128894562,-0.0002426442161721,-0.0032811579809664,-0.0051981189713815,-0.0052414605165183,-0.0033733108274994,-0.0003292906108689,0.0027013805757595,0.0046103769933217,0.0048176879489662,0.0034190328885916,0.0010311503971072,-0.0015131460790055,-0.0034521031034629,-0.0042761444632837,-0.0038033886685645,-0.0021889007604547,0.0001079054146465,0.0024090714561786,0.0039834829884514,0.0042834074068132,0.0031702072014867,0.0010023894502199,-0.0014874906892743,-0.0034722068652533,-0.0043214719082887,-0.0037866712168588,-0.0020480048946269,0.0003509140809653,0.0026545440044071,0.004112320509924,0.004220799451075,0.0029180602229083,0.0006421249916775,-0.0018042566339338,-0.0035565400917809,-0.0040352693657029,-0.0031711698694525,-0.0013960710292477,0.0005915764921852,0.002155721717673,0.0029611502046294,0.002997746436268,0.0024236094238933,0.001392821550471,1.710891880488421e-05,-0.001539972425037,-0.0029677132032776,-0.0038310174975678,-0.0037141697212448,-0.00240093194073,-1.6086267594123148e-05,0.0029000526605259,0.0054204897854238,0.0064441062310455,0.0051350769534039,0.0014595936785236,-0.0034992829984625,-0.0077690559766042,-0.0093029319499911,-0.0070284698993058,-0.0015452871464795,0.0049803745182015,0.0097457056283819,0.0106200252476241,0.007160544604162,0.0008152450105448,-0.0057662569440649,-0.0099317990095024,-0.0101410712049555,-0.0065159181809467,-0.0006626184728575,0.0050753733424634,0.0085795242847841,0.0087479910213847,0.0058338563807229,0.0012248609364679,-0.0032258202510422,-0.0060089849943247,-0.0065191897583281,-0.0051055204638766,-0.0026555707935414,-3.289271433218734e-05,0.0022614370656389,0.0040438837312254,0.0051649275626321,0.0052987326863972,0.0040354433295597,0.0012469008176591,-0.002545578630681,-0.0061226314619074,-0.0079766983901636,-0.0070247843813439,-0.0032517562813464,0.0020934398186908,0.0069176541107544,0.0091773261407997,0.0078432874413472,0.0034523275132132,-0.0020815568710172,-0.0063692394132528,-0.007730978817665,-0.006005129432518,-0.0024835834988821,0.0009805949662311,0.0030779009175994,0.0036171513110653,0.0032660160809764,0.0027832049912241,0.0023837025878882,0.0016839573181162,0.0001864285846524,-0.0021252394816828,-0.0045411813011452,-0.0059039412748829,-0.0052298548708497,-0.0023090346568088,0.002036416537228,0.0061786064571378,0.0083259595892679,0.0073249490020787,0.0032629862560764,-0.0024336179416974,-0.0075039316483862,-0.0097827975877346,-0.0081669777392842,-0.0031700502032529,0.0032279428345478,0.0084053764273568,0.0102297619590692,0.0079692137426911,0.002572709634736,-0.0037794247148544,-0.0086091398789964,-0.0101167105837112,-0.0078009838764642,-0.0025488056823697,0.0037414004486506,0.0088105359530442,0.0107664480377179,0.0087209639241304,0.0031728884994369,-0.0040239893674466,-0.0101925653686315,-0.0127718079487328,-0.0103629657830317,-0.0034587570271491,0.005514353420164,0.0129730722347191,,,,
-0.0058624487808495,-0.00659637921558,-0.0060120972729094,-0.004178249137746,-0.0011273461432278,0.0027697881881758,0.0065152588549282,0.0086344028936699,0.007828275376689,0.0038036037086562,-0.0022571314259646,-0.0079822691052182,-0.0108199625168,-0.009285658474111,-0.0037856770407196,0.0034442846943668,0.0092950711647435,0.0111947014935862,0.0083064178038804,0.001938417359957,-0.0050429242837572,-0.0095321367097748,-0.0096209554521999,-0.0054721817336464,0.0007955185934417,0.0061692717673532,0.0082284279900445,0.0062965630692473,0.0016677486352994,-0.0031767390009583,-0.0058934237306813,-0.005414259213603,-0.0023353744863131,0.0015507155772826,0.0042430783459712,0.0045041488034898,0.0023712908493857,-0.0009616590046402,-0.0037703255467335,-0.0046218417305276,-0.0030371232741335,0.000280215273111,0.0037486934401495,0.0056294663346162,0.0048533827775965,0.0015738988633712,-0.002831598921815,-0.0063439706659368,-0.0072224236242161,-0.0048405412817681,-3.677814985524934e-05,0.0051999794776601,0.0085742504736367,0.0084807751948981,0.0047260170351672,-0.0013225522120914,-0.0072305252791566,-0.0104674970686762,-0.0094889658298061,-0.0044700542977274,0.0026675534454914,0.0089956363509663,0.011795292813386,0.0097432390520515,0.0035642144785205,-0.0041745691313265,-0.0101317587661695,-0.0117162882345341,-0.0083350734469826,-0.0016714685068427,0.0051923647015524,0.0093188077967837,0.0092666260945173,0.0055754418746298,0.0002547350517639,-0.0043232420908487,-0.0065036474654265,-0.0059088743979326,-0.0033285209105999,-0.0001360363343446,0.0023952665642499,0.0035512379283967,0.0032808625062117,0.0020193049248587,0.0004042869570368,-0.0009683713700789,-0.0016970780112224,-0.0016477991926191,-0.0009645485522164,-1.2000318385077954e-05,0.0007520426861041,0.0009509754175823,0.0004628884675238,-0.0004759159789309,-0.0013214017949217,-0.0014705254566182,-0.0006256192992,0.0009393598425105,0.0024142525573353,0.0028155858474493,0.0015037645508634,-0.001383656982403,0.002572599434443,-0.0024413082441668,-0.0076965567442043,-0.0054505328528831,-0.0011401040395636,0.0037677334794307,0.0073004836285933,0.0078146630194128,0.00486358083428,-0.000429562070887,-0.0057859156144692,-0.0088144072428652,-0.0081409168978058,-0.0040243879882203,0.0018253751502686,0.0070544609354451,0.0096251822819046,0.0084816233291046,0.0037261049537493,-0.0036250114324174,-0.0121094239580466,-0.015431608400003,0.0017046114935677,0.0019044777917945,0.0063679066304462,0.0109822473781856,0.0069760253945802,0.0196412413041396,-0.0159586874748677,-0.0621475693553253,-0.0116288493518825,0.049750268385294,0.0517583844838706,0.0098328202576748,-0.0323903585905993,-0.0275098363954351,-0.0391429654854258,-0.0016315386586652,0.0308783015631168,0.0270291397944716,0.0122465354560186,0.003319995645242,-0.0053350664562965,-0.0149087154541045,-0.0164354102389953,-0.0142013341534332,-0.0022315782188841,0.0161962861360672,0.0185656576567571,0.0118452864739804,0.0030613869299534,-0.0278273624125667,-0.0397239211881256,0.0262458915892903,0.0432330372953225,0.0098938165387025,0.0026574195588312,-0.0227032076765119,-0.0537782503995271,-0.0378101805462552,0.0172734197519806,0.0687514243971296,0.0466825307125992,0.0457183937086494,-0.0519862014390095,-0.1109706398912416,-0.0144941574565846,0.0409116322836446,0.0506305678621176,-0.0038795418600278,0.0050011072269521,-0.0126309409858196,-0.0040243993509602,0.0066219021254512,0.0155162842934963,-0.0126314829419904,-0.0439246371517078,-0.0259866127022691,0.0370691393872336,0.0791676525275905,0.0177114343959445,-0.0612751440397305,-0.0474417827133,-0.0367150560119576,0.0467309585918603,0.0124624389352037,0.0566737549633464,0.0404318233398684,-0.0326021336094696,-0.1160250831552571,-0.0439145103538048,0.040503734988185,0.1460936538055772,0.0510311228691332,-0.1262899872146828,-0.0897117883215767,0.0293012312526268,0.0437410491563737,0.0631814620278699,-0.0004236393594772,-0.0254827590272031,-0.0481719965993149,-0.0233159507953109,0.0073796508154496,0.0142853815908913,0.0782661678443632,0.0194272877090895,-0.0333818503369985,-0.0719996998542645,-0.0715810820708873,0.0648512188363195,0.060765712020985,0.0369561615784343,0.0083793976016699,-0.032460598759977,-0.0784453582804252,-0.0438905083273483,0.0533277194824786,0.0557970254705436,0.0131220232965058,0.0163759306839298,-0.0159156540278004,-0.0722192492135323,-0.0141375110683486,0.0498318568904954,0.030891706847343,-0.0057870018250103,-0.049104366904936,-0.019820801528135,0.0407043706457155,0.0478736803638584,0.028628360050519,-0.0395413566124942,-0.1148021246057031,0.0048455086766212,0.0699596080209616,0.0479610059346264,0.0229519470689316,-0.0153765260618713,-0.0669852280646613,-0.0442182869518837,0.0074961238720027,0.042939510170455,0.0688849167546543,0.0207386484639974,-0.0532693241094783,-0.0646356111206809,-0.0007194670934459,0.0197271330087946,0.0084592640678187,0.0153440012312772,0.0401151992485261,0.0002725089651039,-0.0593132318099138,-0.0154573134243831,0.0400342017091539,0.0308082396787798,-0.0256447110866755,-0.0574064174018952,-0.0061724919750905,0.0399645283693361,0.0466088100141056,0.0167539042026148,-0.0224772322316117,-0.0274208157532668,-0.0446768250743604,0.0104795334592503,0.0282268114436258,0.0033116636234116,0.0081808082161192,0.0286220351152345,-0.00891627758218,-0.0484938039615811,-0.0188138862463627,0.0160545735119111,0.0280641155954327,0.0319578066337043,0.0161717863939404,-0.0176682333282771,-0.0802784720262148,-0.0352571515363367,0.0483312046854654,0.0565820389600443,0.0274362579326206,-0.0091829440440577,-0.031572149081103,-0.0425251906405453,0.0063561325566799,0.0194305754352203,0.0100555675997388,0.0139868743259832,0.0059240392115118,-0.0261254138570804,-0.0684078375928356,0.0404547649677934,0.0637027922067271,0.0288023792319816,-0.0137257876375062,-0.0376984586541758,-0.0559856232266944,-0.0155887664534887,0.0345038751767058,0.030352138583886,0.0070533563461378,0.0086918978184831,0.0160913972264057,-0.0006689292299725,-0.0348994309959944,-0.0251202931109092,0.0054344036529708,-5.091006915508641e-05,-0.0040880616461112,0.0009112340006588,0.030365384178612,0.0381868842982796,0.0141082046954178,-0.039730110141278,-0.0649122270489957,0.0059652804092875,0.0238840281995894,0.0202028575576756,0.0022237468502863,-0.0075388260101241,-0.0064957717633255,0.0036713538440974,0.0187921009898278,0.0172016532284336,-0.0072548546875771,-0.0341187302350017,-0.0425055313630141,0.0168056585377292,0.0340126607489169,0.0162178391153764,0.0014052314759102,-0.0048269014220812,-0.007554817559652,-0.0056133686593898,-0.0013592789982459,0.0016601414669746,-0.0015097305933459,0.000183720031196,-0.0073964268160948,-0.0178425995781009,0.0163158474131603,0.0263110885491416,0.0113165969687459,-0.0065952286185008,-0.0152877284214468,-0.0142766177730418,-0.0072646320879484,-0.0007298369668883,0.0030640156059108,0.009357438751928,0.0116384393657703,0.0077787850307432,0.0012127162049686,-0.0050335125940494,-0.0088813547553046,-0.0093407783140285,-0.00648585498942,-0.0013716275503469,0.004194422793313,0.0081663339143929,0.0090154273414866,0.0064107809734579,0.0014195221819768,-0.0039483282702226,-0.0076316907373313,-0.0083717698589781,-0.0061167666468801,-0.0018736081291945,0.0028011209502957,0.0063788118624826,0.0077977947135099,0.00669260789639,0.0034297130273506,-0.0010095778623428,-0.0052689766138316,-0.0079631725533919,-0.0080939749380552,-0.0054374830025671,-0.0007395484213732,0.0044315506200707,0.0082034932940727,0.0116043805721742,0.0066306712964627,0.0014752673293047,-0.0046291840523484,-0.0094562820987385,-0.0110851155995082,-0.0086592535225501,-0.0028196829499178,0.0043913649433799,0.0102124125965865,0.0122454726673467,0.0095148075039323,0.0029960509664936,-0.0047053410795345,-0.010446438441194,-0.0119264686923832,-0.0087007851896542,-0.0023365119188511,0.0043715302687667,0.0087340250475773,0.0093658223225302,0.0066422287323518,0.0022376281655472,-0.0019021185790893,-0.004518185496629,-0.0054104892762735,-0.0051151845909629,-0.0042186484269952,-0.0028464046120634,-0.0007119915991602,0.0023253274516468,0.0056735497651743,0.0079533739699495,0.0076637841005978,0.0041865721034719,-0.0015662459481742,-0.0073628222675458,-0.0106652814558678,-0.0098854195488289,-0.0051892342011092,0.0015620728680658,0.0076680401715392,0.0107804239071233,0.0098487923600339,0.0054251761751094,-0.0007048270494087,-0.0062891777953185,-0.0094181056091304,-0.0091285256898029,-0.005683310664813,-0.0004540478829637,0.0045993529724193,0.0076910684086146,0.0078851175850952,0.0053752214817616,0.0012829400782925,-0.002862861264043,-0.0056955320564739,-0.0064161836648146,-0.0049577702030001,-0.0019415608301572,0.0015149840003284,0.004123773131247,0.0073629746032349,0.003412224464686,0.0004148324635796,-0.0026603893153346,-0.0042104690407423,-0.0034481085208336,-0.0009366285389116,0.001735289542356,0.0029550968150721,0.0020887034091627,-0.0001760148702697,-0.0023204374202162,-0.0029484954564728,-0.0016014813450689,0.001001950863554,0.0033789867725417,0.0041013335627258,0.0025918122030712,-0.0005199359949552,-0.0036896854455599,-0.005259623627282,-0.0043357540963706,-0.0012636305928018,0.0025411009792988,0.0052942094640014,0.0057010286906921,0.0035535772186258,-0.0001911457828161,-0.0038595256721934,-0.0058221840451637,-0.0052303027270647,-0.0023966082158835,0.0013662311384699,0.0043849840327493,0.0054221746673732,0.0042095967495524,0.0014547864041522,-0.0016191530397801,-0.00387544958181,-0.0046629729657565,-0.0038812149138872,-0.0018335374403554,0.0009164275475654,0.0035924011324306,0.0052634537739855,0.0050873066030276,0.0027553909938314,-0.001112183367207,-0.0049915312984935,-0.0070620337124686,-0.0061389475408693,-0.0023852304196848,0.0026536291501951,0.0067465607933884,0.0080399351280048,0.0059348507415527,0.0013456585282607,-0.0037606965669054,-0.0072809033243543,-0.0078808589009215,-0.0054795629291054,-0.0011519608870199,0.0034205225440792,0.006643985344507,0.0075408450791417,0.0059538673461346,0.0024585234535149,-0.0018769131036805,,,
0.0018438687810608,0.0060108284520458,0.0075686498608823,0.0061792634380166,0.0026223521542656,-0.0016351795104759,-0.0050487868104162,-0.006523542418652,-0.0056870427090257,-0.0028915483294888,0.0009520752114701,0.0046073279460889,0.0067981528582791,0.0065802320915332,0.0037520012922108,-0.0008797172369807,-0.0056114437584369,-0.0084231986429321,-0.007854766168965,-0.0037882612739765,0.0022880141482208,0.0077729047814696,0.0100851463442309,0.0079411132879424,0.0021111421222752,-0.0048155332098035,-0.0096223013699387,-0.0100434915567156,-0.0059099562478834,0.0007600253789904,0.0067858946390644,0.0094172769013031,0.0076518694994814,0.0026225192500252,-0.0030842341875828,-0.0067748225633297,-0.006957314841412,-0.0039662075183326,0.0003691360301068,0.0037817793330233,0.0047534573925408,0.0032030510981976,0.0003593606528489,-0.0020411091558554,-0.0027407685629675,-0.0015855390397009,0.0005089962827141,0.0021597638831002,0.0023101247223309,0.0007933180926156,-0.0015894342356512,-0.0034816604837469,-0.0036713613267078,-0.0017600293380562,0.0015241910547041,0.0045788773800518,0.0057033224645377,0.0040431310486963,0.0001684639859442,-0.0041123670900109,-0.0066688167784617,-0.0061914416631363,-0.0028907502577463,0.0016517912477768,0.0053545576084304,0.0066827952447979,0.0052891705770511,0.0019851456560766,-0.0018052777627541,-0.0047198234021142,-0.0059095110467305,-0.0051496783579516,-0.0027336588467267,0.0006554228235491,0.0040302948752637,0.0062508089981854,0.0063572087871412,0.004022090837599,-0.0001286053641856,-0.0045849103427639,-0.0074860044435656,-0.0074326034023269,-0.0042104048100564,0.0009598330142221,0.0058549369075986,0.0082481814526528,0.0070129786620281,0.0027282145458228,-0.0025899271591131,-0.006501229350597,-0.0073336356205422,-0.0049196486497322,-0.0005541863138436,0.0037077937689803,0.0060060643311589,0.0054482970143017,0.0024272893883754,-0.0015900317754961,-0.0047063820546604,-0.0054351294426694,-0.0033975938671154,0.0004560007247181,0.0042485424719365,0.0060488349783741,0.0048167063907699,0.0009637193664488,-0.0037669344017479,-0.0070839812013319,-0.0072450815409534,-0.0039344693920523,0.0015258094437144,0.0067483100301,0.009358258566567,0.0080611227210068,0.0032191576279969,-0.003287888586088,-0.0088257599349963,-0.0110669846653555,-0.0089380106740188,-0.0030918411599835,0.00429062642595,0.0103233722858166,0.0125546864032353,0.0099566384984213,0.0033514657865251,-0.0048792342050321,-0.0116501710729821,-0.0142652544178737,-0.0114101003626192,-0.0037578659568737,0.006053762798441,0.0142066919680806,0.0171112950978861,0.0129565896831903,0.0027291708395231,-0.0098333967487293,-0.0194701114062677,-0.0214222165564815,-0.0135192736485556,0.0024665570787415,0.0207122219327939,0.0325219571357649,0.0284302808830378,0.0007983714452727,-0.0411081173547196,-0.0512419159054294,-0.0003141629548634,0.0258332390224071,0.0119714813941481,0.0168709803394549,0.0164169619891288,0.0011292640313648,-0.01155995052641,-0.0191087678411009,-0.0174452935002171,-0.0107882991582876,0.0019390090308427,0.0139767509678134,0.0194810936769805,0.0243046623277379,0.0256219553463628,-0.0010965125178032,-0.0730748512739042,-0.0651498375330566,0.0341953076270269,0.0461031311082317,0.0259658783228238,0.0077917809150701,-0.0009159901108846,-0.0045656414464936,-0.0128290450414176,-0.0303681341975962,-0.0327976637296677,0.0400081033527499,0.0242980514949608,-0.0031466041650435,-0.0203313337956743,0.0086790654163228,0.010666984961288,0.0091375828869723,0.0090905030366385,-0.0163024753230711,-0.0549300101784119,0.0132395984985486,0.0363873160818364,0.0203611636979916,0.0057880924847306,-0.0236861467522983,-0.0568934544505718,-0.0037267417347284,0.045412037645393,0.036569948301308,0.0291020892815329,0.0250607745209349,-0.0443986723071292,-0.1114423413773993,-0.0685589074462523,0.0702083929969914,0.1083811509511951,0.0597826894243409,-0.0254927282092639,-0.0864509622274165,-0.0067458212351441,0.0454107696487737,-0.0085609984899253,-0.1048433553703762,0.0400619338627004,0.0867874576102954,0.0156977938833878,-0.0596365510688725,-0.0587896394346388,0.0590178219787047,0.0745536132391106,0.0312048644622862,-0.0581354830821735,-0.1089346308180457,-0.0995663692837073,0.0663689699939633,0.1511410842522473,0.0902886802239109,-0.0265746020083574,-0.1051941232022528,-0.0523966391174817,-0.0543396056596251,0.0455253306143749,0.0615011575023301,0.0267342376238937,-0.0282642424799337,-0.019073675017577,0.0450814961200877,0.0300603764445911,-0.049693133154691,-0.080170917408772,-0.0279744436880167,0.0878750631498881,0.0794725857402825,-0.0022537317545958,-0.0666895237682743,-0.0565181193939543,-0.0358123135611142,0.0812240782203306,0.0765120855637304,0.0057406582050524,-0.0487651332148734,-0.0705718057398331,-0.0318418536294872,0.0329151580044333,0.0618101074047493,0.0239624031341098,-0.0064929438454634,-0.0238950742404729,-0.0273359347764442,-0.0033844755062664,-0.019280633429367,0.0525574711650032,0.0262085757768303,-0.0300844531843782,-0.0397084562243123,-0.0148265611253805,0.018825285594241,0.0773155273041478,0.0146157043742475,-0.0861676045182974,-0.0310208393163374,0.020734840017703,0.0257383090812885,0.064784047139932,-0.0082889107761228,-0.0573717886247507,-0.0759689373829273,-0.0025520520364971,0.061806480113331,0.0778907425688298,0.0611108626177999,-0.0252315118306757,-0.1105754218338736,-0.1371414186285367,0.0566171418024941,0.1099826968420064,0.0650401352275295,-0.004373262162477,-0.0578138067313839,-0.0554954413028004,-0.0148182972567036,0.0745312864674454,0.033493123050323,-0.0202492356369714,-0.052663093934812,-0.0466967476706383,0.0168026557842783,0.0385834672457856,0.0595284602519009,0.0283083593701296,-0.0218015646277068,-0.0751141955990641,-0.0374682565105622,0.0104725322246678,0.0351982659061351,0.0284451647517953,0.0059991752192495,-0.0051313287213877,-0.0095269476326362,-0.0061675510019338,-0.0012472594642176,-0.0001304066151701,-0.003520111085546,-0.0027336042481795,-0.0015523234362666,0.0009978702848002,0.005700030716844,0.0049865988602876,0.0042560664587488,0.0043690738665793,-0.0010223456863451,-0.0071498196052,-0.0099333932150497,-0.0075985381430508,-0.0012328834979787,0.0059488143586488,0.0103119209799624,0.009666236583624,0.0043584126595801,-0.0029480288113561,-0.0086582439296821,-0.0100548513891354,-0.0066049679476462,-0.0001413059758217,0.006114471888155,0.0091561272191287,0.0076304605840855,0.0024350353037175,-0.0037789444155865,-0.0079335680971707,-0.0080255051563226,-0.0040733536176125,0.00193097698037,0.0070136135555852,0.0086529067028998,0.0059727046452372,0.0001557279875144,-0.0060859455935404,-0.0097321288017051,-0.0088393616543798,-0.0035012288771491,0.0040524513008534,0.0103353004808713,0.0121689056618839,0.0082687443262205,5.79328870072204e-05,-0.0088125935338748,-0.0141254836293234,-0.013156927813257,-0.0060748755014294,0.0040612442220247,0.0127040677683374,0.0159259952671733,0.0122214099905866,0.0031793637413912,-0.0072545715508655,-0.0145680538666733,-0.0156950530417783,-0.0103260175960774,-0.000924123136284,0.0085071885564374,0.0142416522138111,0.014324059987333,0.0091068773852671,0.0007868523524632,-0.0076098874470596,-0.0132534322456806,-0.0142608364416361,-0.0101670431670185,-0.0021487154468273,0.0071249712745744,0.0142054816178917,0.0161059944212757,0.0116396005780821,0.0021873763500626,-0.0086190044770709,-0.0163106155504515,-0.01751318389143,-0.011497770201844,-0.0005991866649417,0.0107155304942388,0.017726907565517,0.0174745043002835,0.0100290492841491,-0.0015259796514649,-0.0123933945798016,-0.0180808972385058,-0.0162805882722718,-0.0078185381476691,0.0037224005652494,0.0135385568378141,0.0176284951482558,0.0144161778738395,0.0052720013403083,-0.0062504153172776,-0.0160140419727523,-0.0208642637566772,-0.0024238695261265,0.0042187572873255,0.0060615026967766,0.0042940209367403,0.0084377719866478,0.0078372268166106,0.0035229409568605,-0.002358519245517,-0.0074238912543868,-0.0097639183981586,-0.0084537893395133,-0.0038442789631222,0.0024615223574873,0.0080633252608633,0.010630413944453,0.0089079764653646,0.0034019159923649,-0.0036721293131994,-0.0092747019368496,-0.0109212286797542,-0.0078872469789215,-0.0015872407193903,0.0051159858490257,0.0093111322821093,0.0093836703565895,0.0056268507967307,-7.97035897455369e-05,-0.0052273397270662,-0.0077698133593082,-0.0069190647977346,-0.003384679542755,0.0010242793125546,0.0042901885671069,0.0051705178669968,0.00375443149098,0.0012589443779387,-0.0008151096168982,-0.0016177592545123,-0.001354886358941,-0.0009178550127284,-0.0010531594223019,-0.0017182123635934,-0.0021148863634728,-0.001365171054647,0.000697974028369,0.0032280291951188,0.0047842061189904,0.0042042032649023,0.0013821517660214,-0.0025255709175832,-0.005617408667653,-0.0062359248801546,-0.003895302732894,0.000386363367764,0.0045645764367461,0.0066095598557613,0.0055478875394381,0.0019507596736991,-0.0023793989230885,-0.0053494742514222,-0.0056421199536462,-0.0033423708816557,0.0001983798013244,0.0031577882694066,0.004228730463541,0.0032380745498313,0.0010773375857079,-0.0009545931827324,-0.001948709298629,-0.0018194695560084,-0.0011443843355623,-0.0005951622449286,-0.0004120785326473,-0.0003028155364272,0.0001962690990462,0.0012101973156958,0.0022820746387807,0.0026034542413259,0.0015741966940932,-0.0006929345273173,-0.0032781020382421,-0.0048567549741811,-0.0043693124519149,-0.0015842255932294,0.00271695998386,0.0069603161990169,0.0092263504444239,0.0076908076930501,0.0009503873430308,-0.0116442334417664,-0.0293262060965806,-0.0075544430708805,0.0172324571536118,0.0181739186852097,0.0093841674558118,0.0017498188121784,-0.003849793099839,-0.0062611984101339,-0.0057695137620492,-0.0082037107249342,-0.0058287975647073,-0.0001055989134853,0.004603961855357,0.0079419764960134,0.0089053134377792,0.0066936986952924,0.0015911062774037,-0.0047054104866873,-0.0095930603267096,-0.0107288936786246,-0.0072695031064779,-0.0004811669570402,0.0067031004378738,0.0110352632064427,0.0105338179350098,0.0054579514867092,,,,
0.003263386990822,0.0073061196874413,0.0084339345305467,0.0063971915194422,0.0021773397891239,-0.0025120482278565,-0.0059526337904816,-0.0070619601591655,-0.0057105232387303,-0.0026327771043794,0.0009740461804531,0.0039414019130608,0.0054834046417186,0.0053150282512445,0.003602040517497,0.0008672462182748,-0.0021049339899767,-0.0044196024716144,-0.0053185395539138,-0.0044617566379246,-0.0021042736283215,0.0009517541971205,0.0036426844367145,0.0050486060513024,0.0047286575271084,0.0028428298566318,4.762497673734154e-05,-0.0027401713730286,-0.0046116579519748,-0.0049225822581534,-0.0035147928170819,-0.0008312493922467,0.0021786758382502,0.0043936465441553,0.0049726501252695,0.0037057497017564,0.0010942889848156,-0.0018589420798272,-0.0040409729419019,-0.0046452158871877,-0.0034680097409561,-0.0009815791410545,0.0018475923762494,0.0039297396330832,0.0020874741726493,0.0034003902617563,0.0012522584387241,-0.0009947225577968,-0.0024783585045495,-0.0027872649789058,-0.0020561984351431,-0.0008013683338686,0.0003967406721178,0.0011751706634998,0.0014790643334375,0.0014406892174041,0.0011781098845025,0.0006955865282189,-3.302557864809011e-05,-0.0008949520074462,-0.0015782816633386,-0.0017263725683157,-0.0012023303672919,-0.0002321517219958,0.0007122531985801,0.0012040639992772,0.0011058988393443,0.0030911067448811,-5.688789373197205e-05,-0.0006505158698425,-0.0011218874581181,-0.0014334863807098,-0.0015109912149651,-0.0012398316296402,-0.0005380175389872,0.0005220198386275,0.0016374810173,0.0023420552331165,0.0022218146346559,0.001165867138264,-0.0005086591122433,-0.0021489873231554,-0.0030428464042771,-0.0027494830797594,-0.0013281482743323,0.0006589124712614,0.002394144168365,0.0031862588694352,0.0027736910233437,0.0013888617576991,-0.0004091537342938,-0.0019916430634875,-0.0028689491056353,-0.0028037930067572,-0.001845963858858,-0.0003050411141356,0.0013379132473259,0.002569105908946,0.0029962549128682,0.0024706398633442,0.00113619247541,-0.0006117661695515,-0.0022422333406137,-0.0032372487899018,-0.0032329295034438,-0.0021311081492827,-0.0001680949599911,0.0020864926531724,0.0038412078954284,0.0043267399083663,0.0031298277636719,0.0004826150978559,-0.0026810416003971,-0.0050268442741593,-0.0054088448029146,-0.0034618484569031,0.0001434781078352,0.0039462077938816,0.0063166129783755,0.0061461787159387,0.0033174964585455,-0.0011996524033676,-0.0056500930206245,-0.0081201193126532,-0.0073130761644566,-0.0031885678184606,0.0028502603055038,0.0083975776767125,0.0109984112843093,0.0092126665080716,0.003295672297692,-0.0048193485462752,-0.0122013646980963,-0.0159263671517522,-0.013999554592974,-0.0059563626554569,0.0068533640591864,0.0211552437611988,0.0317116189840484,0.0314540645693291,0.012193695538354,-0.0333662570318018,-0.1074051661881918,-0.0476009652171872,0.065852177667689,0.0712087276273555,0.0349261036323563,-0.0003954298298179,-0.018252538870559,-0.0274236398242298,-0.0259570260435876,0.0019172463884788,-0.0027084887658682,-0.0301507332057463,0.0175074252920156,0.0442322310924617,0.0295122964103807,0.0047420190395237,-0.0259112960282946,-0.0397090903137314,-0.0093034621406167,0.0002845055595304,0.0293519752640799,0.0223836959803253,-0.0217744581762864,-0.0231088027935052,-0.009350588883007,0.0368451390654955,0.0264982120623696,-0.0027142092518176,-0.0264339822290716,-0.0200767564518827,0.0054917791186988,0.0103918197440172,-0.0105907443606574,-0.0368524375617166,0.026115088517502,0.0616431930514075,0.0091085163208354,-0.0213112938770735,-0.0089537685886729,-0.0554326571173165,-0.0188833505499021,0.0071487075928825,0.0697736484785762,0.0264533114225677,-0.0075657956671427,-0.0556002771586902,-0.0307284964933978,0.0454952502258324,0.0207827079807883,-0.0057597493472207,-0.0270711768188588,0.0005308074442125,0.0097470905375133,0.0121845157433714,-0.0048966413472057,-0.0389635220178542,0.0422030677247808,0.0245304040446361,-0.023450830247063,-0.0362051801381927,0.0021092092442767,0.028938906876377,0.0100460217474563,0.004231401061791,-0.028032246204869,0.0279906442196811,-0.0099384154906656,-0.0553593544499615,0.0061989920340615,0.0336254992192931,0.0506521071952323,-0.0009551242888838,-0.0146016827191575,-0.0274586632144571,-0.0558993824287878,0.0072339394077594,0.0438847239585831,0.047536470676601,-0.0222300153548687,-0.0345101354072639,-0.0038509167595033,0.0086918819531122,0.0255078004519688,-0.0133765626273141,0.014198224683927,0.011596074685443,-0.0476376051834401,0.0060615491701302,-0.0309072714880385,-0.0331651571074066,0.0591032802390275,0.0899965454654921,0.0310702937635263,-0.0289346083984561,-0.0705007480015448,-0.1211564320821992,0.0085341831613953,0.0425447166468336,0.0941363911531853,0.0637205308119487,0.001214291102785,-0.0527642946986692,-0.0810075437516989,-0.0354725144423157,0.0357054438700887,0.039007560219869,-0.0067241676606514,0.0300389523345734,0.0375876250043979,-0.0194470759507464,-0.0911113656073259,-0.0030353388604811,0.0374564789490121,0.0342444788549158,0.0043078605450882,0.0081543198356273,-0.0340720144910035,-0.0183174643911433,0.022068500387379,0.0059246439960867,-0.0107244945000067,-0.0010467051737489,-0.0051299725912275,-0.0111447073245361,0.0198484368093636,0.0117122070132062,0.0086552566448354,0.0233160717043107,-0.0013797552848926,-0.046550463385437,-0.0554125732340808,-0.0125268710694482,0.0433956089151059,0.0519023213158175,0.0221594723350531,0.010645028283064,-0.0011260918826968,-0.0296829125991797,-0.0652852646112709,-0.038376720571732,0.0263204896793243,0.0481443937418589,0.0230542651624951,0.0253792994105178,0.0144285983915388,-0.0123901147679859,-0.0543378900902558,-0.0490550207628419,0.0079683415361236,0.0379203819338493,0.0268947544462544,3.449585121412547e-06,-0.0026465167442713,0.0149182877349521,0.002141217613481,-0.0201735845165207,-0.0471510967699977,-0.0190095723800293,0.0431986888423768,0.0400809722057077,0.0144529961098645,-0.0086673430928515,-0.0272661353483516,-0.0298205666894239,-0.0036308650375101,0.0137590322391347,0.0165270271374542,0.0100968320413837,0.0051431958793367,-0.0025139986404953,-0.0052011923932588,-0.0082772077903936,-0.0121051685477696,-0.0024641380283868,0.0036702971105989,0.0067560745411822,0.0072587148524375,0.0055985676896802,0.0023460027228133,-0.0015897046154715,-0.0049936363795188,-0.006668899616058,-0.005917718459786,-0.0029131328926187,0.0012749061847346,0.0050540568280418,0.0069294625098486,0.006102541044276,0.0028094551837797,-0.0017242454043134,-0.0057035009854114,-0.0074362638279586,-0.0060452685744397,-0.0019415104156587,0.0032038529349911,0.0070917486304581,0.007837103861968,0.0049408558351767,-0.0003487464786702,-0.0055582273939859,-0.0081858891053149,-0.0069593606516044,-0.0024770325975606,0.0031080901784507,0.0071757560070708,0.0079094749737411,0.005107451231111,0.0001733668762826,-0.0046392451210483,-0.0073045252987195,-0.0068867573877185,-0.003809282981528,0.0005122901669472,0.0043916799344777,0.0065454592953852,0.0064413074660249,0.0042885694255105,0.0008182851993707,-0.0029768580784168,-0.0060578897867492,-0.0075136906131919,-0.0067325384833922,-0.0036003127456021,0.0012985037178321,0.0066002195280149,0.0103901904675738,0.0108315212800878,0.0070255905898928,-0.0003047416250584,-0.0087391164586132,-0.0148836211361278,-0.0157149906615818,-0.0100274524018891,0.0006896513579503,0.0124775525715775,0.0203325064252543,0.0203444361484491,0.0116298562827921,-0.0028963935765042,-0.0174268439135105,-0.025608204080036,-0.0233722881633677,-0.0109710950409278,0.0068024511936155,0.0224667062584129,0.0290834809674065,0.0234514872521195,0.0077315211822814,-0.0113712389235975,-0.0255814243975355,-0.0288152944384852,-0.0199322456106302,-0.0031480323673013,0.0140605896835183,0.0244747823668014,0.0243164142263848,0.014603289525399,0.0002082319506731,-0.0126780899446716,-0.0193041865570709,-0.0180647515426675,-0.0105978272498528,-0.0005515257661339,0.00817788286277,0.0129051078825802,0.0128232538255709,0.0088385337390588,0.0028593734123823,-0.0030523573959429,-0.0073221600431876,-0.0091306193039875,-0.0083622440351058,-0.0054339571919884,-0.0011708906011881,0.0032793186696938,0.0066411433942206,0.0078943911185449,0.0067003579477254,0.0035823592928558,-0.0003118261164375,-0.0037439302962512,-0.0058787034304526,-0.0064489149055969,-0.0055723849479935,-0.0034674693543561,-0.000360156794816,0.0033350239478006,0.0067695565262735,0.0086816618231738,0.0078544032096365,0.0038526779416414,-0.0023932045843819,-0.0086195415218584,-0.0120613149571307,-0.0107890439295857,-0.0048513097248621,0.003490808004708,0.0106865541094503,0.0135503196641635,0.0107879235837382,0.0036107846400032,-0.004845494518934,-0.0109806881913373,-0.0123522326656611,-0.0087007466523716,-0.0019254169220982,0.0049260020008093,0.0091061423308821,0.009323749776328,0.0060877046125705,0.0011910405355059,-0.0032775826806796,-0.0058413954891023,-0.0060596521407526,-0.0044001345022198,-0.001788953027663,0.000842792299277,0.0028196990451151,0.003787244678248,0.003680813053734,0.0026706284986412,0.0010870504278295,-0.0006761049651182,-0.0022369952839094,-0.0032414691114553,-0.0033704792308173,-0.0024421578685037,-0.0006043266743234,0.0015584897678767,0.0031900550122192,0.0035761713456803,0.0025509349138156,0.0006091096060206,-0.0013614586215211,-0.0025517352762139,-0.0026113323776035,-0.0017337240647872,-0.0004547753768727,0.0006663914796658,0.0012942451572385,0.0013892937899994,0.0011164386761718,0.0006801967499154,0.0002040857421502,-0.0002719615887695,-0.0007030361488956,-0.0009706939104162,-0.0009270055269402,-0.0005269392479692,7.740305359179355e-05,0.0005874274194855,0.0007357851867162,0.0004650490431999,-2.072579098978526e-05,-0.0003727518871723,-0.0003188837212362,0.0001434443807239,0.0007131644468251,0.000950916057969,0.000554093117079,-0.0004240506479442,-0.001545669654076,-0.0021793752247653,-0.0018281874230498,-0.0004353147937396,0.0015031986221804,0.0031138020766296,0.0035542500944449,0.0024541354609778,0.0001408062633998,-0.0024841082118805,-0.0043443773458258,-0.0046414616907139,-0.0031529066810488,-0.0003037816969329,0.0029567308545705,0.0054295578694546,0.0060585452693013
-0.0025113974168448,-0.0088080883795041,-0.0115114908260457,-0.009153993085382,-0.0025662465279335,0.0054071159767171,0.0111641885289909,0.0120295018356014,0.007559201804868,-0.0002154590012443,-0.0077606890902562,-0.0117267109212418,-0.0104837838742721,-0.0047814308543149,0.0027065623832474,0.0086623088788204,0.0106109154597181,0.0079539133448172,0.0021183317611846,-0.0042002777320507,-0.008306565605499,-0.008672106467719,-0.0054792512053099,-0.0003628363800072,0.0044403452929069,0.0070863502463052,0.0068137049397389,0.0040749885504878,0.0001440931734773,-0.0035225223586982,-0.0058157603969882,-0.0061856379501562,-0.0045921433348909,-0.0014170033959147,0.0025296264551356,0.006015357947415,0.0076366867333917,0.0063893636376005,0.0023130641746946,-0.0032277179487481,-0.0079402076071054,-0.0096025775615313,-0.0071878418040349,-0.0014922187007904,0.0051170954010043,0.0097444029542529,0.0102894570717424,0.0064188899056045,-0.0002555379928098,-0.0068644036191618,-0.0105352553251232,-0.0096681467579992,-0.0046567913844687,0.0022848423410184,0.0081157683123309,0.0103228576770263,0.0080224657976674,0.0023206415706121,-0.0042172686632946,-0.0087310108516654,-0.0093223615808031,-0.0058459536544782,8.219945454454369e-05,0.005824533732971,0.008878640023595,0.0079614903621273,0.0035560744685562,-0.0023261162612578,-0.0070651466033385,-0.0086113326322236,-0.0063751332330471,-0.0014324486040879,0.0040102942054314,0.0076126337990343,0.0079080920806798,0.0048993591493111,-3.910451751099604e-06,-0.004670929254213,-0.0072330874089343,-0.0068760193434574,-0.0040526300844255,-7.296987242060064e-05,0.0036081011110617,0.0059587296213546,0.0065337551344592,0.0053096857165765,0.002491064358269,-0.0014655687024699,-0.0056535939073755,-0.0086601121373719,-0.0089502192453112,-0.0056545236537289,0.0006665643357469,0.0078338048001016,0.0127398795106979,0.0127395056622994,0.007098309264547,-0.0023065008350056,-0.0115561017495056,-0.0164039874315178,-0.014339382336164,-0.0059313074101001,0.0052961244033524,0.0144479283103393,0.0175209528717726,0.013223094734934,0.0034943173872176,-0.0074464214584995,-0.0150117531804531,-0.0162153374971161,-0.0108480713770166,-0.0014142119137508,0.0080597499505759,0.013770140613169,0.0136798178294539,0.0082372918821575,1.7885579475849774e-05,-0.007499579204418,-0.011436579297226,-0.0106254235518986,-0.0058896455066972,0.0005250098662024,0.0060180033407431,0.0086861194153275,0.0079314082182092,0.0044624518862185,-0.0001788692241345,-0.0042758636548101,-0.0065193585692039,-0.0063660205718755,-0.004114093859109,-0.0006962461270876,0.0027335541980576,0.0052437415334005,0.0063711716010728,0.0060076059699594,0.0039602957976994,-0.0005303517850915,-0.0088511392105587,-0.0221855420018766,-0.0153323297034187,0.0201617975356078,0.0216411058396163,0.0083360832776897,0.000881272878739,-0.0064127912832306,-0.0078067522231506,-0.011654369707624,-0.0084052367312581,-0.0021591639064836,0.0131965416152582,0.0140216722387356,-0.0231997893671957,0.0181402643063562,0.026548051576146,0.0035473950294678,-0.0281843253397999,-0.034626502234562,-0.0004770183341308,0.004191217352497,0.0182702964707821,0.0226175352358091,0.0092290044090804,-0.0034784910028534,-0.0122652726938584,-0.0129478043086026,-0.0103697569217561,-0.0049029544945293,0.0019697969273596,0.0121500174488548,0.0138644965894539,0.0144967407675761,0.0054943085833483,-0.0198023820848632,-0.0331028370903019,-0.0357138032328678,0.0233357027364266,0.0675375134314158,0.0478724200381431,-0.0048232249395704,-0.0833057305590174,-0.103668556666813,0.0138010449670215,0.1030270705428097,0.0782937319439434,-0.0031977104489312,-0.062873555068437,-0.0213515251903552,-0.0395966020845046,-0.0019806482026259,0.0359437755723701,0.0158009136896319,0.0019624593094938,-0.0249705093344615,0.0512385314155386,0.0138875853690218,0.0089947870508918,-0.0566627822579014,-0.1157594729494339,0.0180716813540182,0.1086962524323445,0.0769909587212043,0.0088660491415777,-0.0802693389316421,-0.0858741172648892,0.0251921463506111,0.0476152283835089,0.0069505061551674,-0.0103552300010147,-0.0134238594938903,-0.0124635345517094,0.0615433393385905,0.0350521443975597,-0.0428160572779668,-0.0549079278548213,-0.0460060838616369,-0.0104605795678851,0.0648924352563543,0.0914662084995828,0.0316505564196605,-0.061097314640169,-0.0469468240833121,-0.0385785786085017,-0.0795556196195669,0.0947401873599119,0.0550794549646087,0.0005101746178745,0.0004799662921765,-0.0066044021608272,0.0077464519446398,0.0055862627331573,-0.0204942173730482,-0.0682069177354536,-0.0405700538616468,0.0131071946153709,0.0799493934949201,0.0713838496313379,0.0132505257604145,-0.0203383941422061,-0.0297083789490238,-0.0366715085521192,-0.0582815239516639,-0.0554861594087402,0.0441819146681353,0.0731137176898917,0.0505501192313181,0.0210390690029126,-0.0006163681465591,-0.0266950314403902,-0.0399942268038449,-0.0623872235106716,-0.023150378860874,0.0171077373417133,0.0440197277289196,0.0398547984391887,0.0276811590290383,0.02100543855333,-0.0044982988670478,-0.0655391203593311,-0.0416250448006957,-0.0640773240117623,0.042194209811951,0.0975455029395186,0.0559850990015538,-0.0169470900065912,-0.0777428797123214,-0.0560683171173248,0.0002496570757979,0.044809568287038,0.0395154122672578,-0.0053619908702325,0.021810862929935,0.0171122006806933,-0.043200367748695,-0.0816173474618055,0.0107868721476541,0.0267988826271731,0.019571210070539,0.0470990935626705,0.0207076995639698,-0.0081298366177072,-0.0384782645767165,-0.0353599062658926,-0.0066274078968895,-0.0162741440780069,0.005158712616589,0.0388123479195487,0.0499930477239161,0.0219202984261128,-0.0210638364232878,-0.0506250794658442,-0.049052813089107,-0.0206262407953596,0.0482945448533981,0.0456095558353682,0.0205833179799804,-0.0037859892660519,-0.012883771759027,-0.0234226719670794,-0.0189192604223124,-0.0123597654470519,-0.0245076949533495,0.0389477351068071,0.0388453769932198,0.0165964475900281,0.0082641609358185,-0.0204833752217052,-0.0432082726426198,-0.0260599760089966,0.0237631338906134,0.0040451957032019,-0.0227838571111719,0.0183988338218715,0.0529075927876942,0.0344880269350504,-0.0123199658570422,-0.0384762354450606,-0.0766366131673747,-0.0215095568501218,0.0499444022499683,0.0448562492736399,0.0172962361620559,-0.003488404142732,-0.0134692442251809,-0.014563605513574,-0.0131360738091762,0.0087862428628222,0.0067942130862924,-0.0127941866923086,0.0010330660891506,0.0177677867699604,0.0027989229304643,-0.0137077873411509,-0.0141582334927406,-0.0016974943510691,0.0110424544121491,0.0173020810921014,0.0151271218609742,0.0051168342140708,-0.0123844602616928,-0.0257655844911308,-0.0225634072209915,-0.0086946036022128,0.00799003619926,0.0216642612607374,0.0265888485001973,0.0201851500013849,0.0046841292363872,-0.0134981561389822,-0.0264347292316911,-0.0282212348699247,-0.0177385172988448,0.0006819133074027,0.0190730748253759,0.0293507517774412,0.0269390812995831,0.0128437085317191,-0.0067713688178574,-0.0233102357135933,-0.0295548232208093,-0.0228649025197625,-0.0063415372555211,0.0125830779774125,0.0255158642061288,0.0269022730024325,0.0164891730384449,-0.0006961778500452,-0.0167982266729535,-0.0247953773479822,-0.0216172111057076,-0.0093006745784457,0.0062350603601753,0.0180778493069235,0.0214319713621975,0.015521402341942,0.0035606566514453,-0.0089762984086058,-0.0168527567134544,-0.0172124359110798,-0.0105408372728079,-0.0001675152231631,0.0093715950693218,0.0143394630090425,0.0132677670182888,0.0072769797304287,-0.0007667895065308,-0.0076873690094886,-0.0112482238077366,-0.0107132493733469,-0.0067166312696041,-0.0007755267600852,0.0052278808651302,0.0094802981275384,0.0106336348167232,0.0081916408504053,0.0027828652926244,-0.003872737764655,-0.0094328351637319,-0.0117591743859864,-0.0097908991007775,-0.0040599411599216,0.00342337967206,0.0098941645486609,0.012869835863678,0.0110901421297521,0.0050217484275537,-0.0032361512140414,-0.0106249824817268,-0.0142015122946954,-0.012296746378951,-0.0053350211269133,0.0041010215272057,0.0121544669488252,0.0153007489275298,0.0120060855574601,0.0035905026295826,-0.0062537878219089,-0.0131524347192162,-0.0141275991254088,-0.0089969937179121,-0.000376482030051,0.0076855958878411,0.0117007795573519,0.0103248455153765,0.0047723765838912,-0.0020348889786585,-0.0070198096483032,-0.0083492786127148,-0.0060357761888561,-0.0016077372746005,0.0028036698780141,0.0054250710993731,0.0054488523405783,0.0031689235494622,-0.0002692651905574,-0.0033561389285949,-0.0047941486501174,-0.0039946687124495,-0.0013162907700445,0.0020683389219405,0.0046456815242915,0.0051958535080158,0.0033336566233849,-0.0002743535829016,-0.0041292623252045,-0.0064943916801695,-0.006140282764798,-0.0029343711490075,0.0019883681730178,0.0065876020733675,0.0087228511170674,0.0071167675394327,0.0020687568452096,-0.0044640690509066,-0.0095783297746687,-0.010714887994206,-0.0069641906685705,0.0002932703205658,0.0078465704709085,0.0121095928693681,0.0108991361344354,0.0046098952371132,-0.0038807163732865,-0.0105842896766775,-0.0123635602912105,-0.0084727057026186,-0.0008859278426342,0.0067352962594854,0.0108794026714654,0.0098712897435057,0.0045673130615029,-0.0022321202751456,-0.0072746478837303,-0.0084514383386608,-0.0057072856929095,-0.0008698434167904,0.0034431480109722,0.00522853486512,0.0040689747551425,0.001179241561598,-0.0014461354453077,-0.0022581571526642,-0.0010323047946651,0.0010903164071627,0.0023842020434852,0.0016540259681964,-0.0009752512046721,-0.0040490258083121,-0.0055750633882207,-0.0041932366939206,-6.700973685125092e-05,0.0050368155067232,0.0085704002942018,0.0085056605534879,0.0044234545708211,-0.0021724850017328,-0.008473866690937,-0.0116262023706301,-0.0100412435355105,-0.0041497120754231,0.0037581236677455,0.0105126341095808,0.0133852518238681,0.011158237281527,0.0045493969019711,-0.0040794244592874,-0.0115569326208337,-0.0150014937776256,-0.0128724535516919,-0.0056454963319296,0.004179555209126,0.0128680444009257,0.0168626046797611,0.0143024316356591,0.0059592307691967,-0.0049336647214786,,,,
-0.0056386446771377,-0.0080589265643321,-0.0068160521053855,-0.0028798965607192,0.0016930306887619,0.0048164770237188,0.0053196699721526,0.0033633936918517,0.0002078180072496,-0.0024861803649624,-0.0034656129953689,-0.0024410352839948,-0.0001586647791428,0.0020271352884701,0.0028692389631702,0.0018761696834743,-0.0004289650297874,-0.0027627941106623,-0.0037286534951737,-0.0025647652482253,0.0003581050532895,0.0035834820024331,0.0052457819693436,0.0041181206530857,0.0004624199425578,-0.0039029634761856,-0.0065033629171527,-0.0056418341917931,-0.0015143791267866,0.0037360277955953,0.0071558077478903,0.0066921438141626,0.0024584321461336,-0.0032504463330577,-0.0072502920229142,-0.0073047342576532,-0.0033987479635186,0.0022967882228785,0.0066984757719322,0.0075287749137973,0.0044943741153134,-0.000674679164406,-0.0052579479000831,-0.007022965533094,-0.0053345742698106,-0.0013322519333312,0.0028415741937834,0.0052502082272799,0.005098026225085,0.0029196703860125,4.277849133276651e-05,-0.0022414870801531,-0.0032763962240969,-0.0031259582702551,-0.0022426973450536,-0.0010549173743556,0.0002185708168862,0.0014698484022788,0.0025159426809673,0.0030564778644715,0.0028119041433567,0.0016876724248618,-0.0001667811833049,-0.0023702561332113,-0.0043084610927373,-0.0051732804693325,-0.0042068619949399,-0.0011803451171387,0.0031585335290705,0.0070857942775154,0.0085668619849615,0.0063497661567205,0.0008622482548444,-0.0057136329174932,-0.0103719493679494,-0.0107754907689505,-0.0064850166593958,0.0007673358091243,0.0078937853040001,0.0118854924351514,0.0111230549980077,0.0059799591182173,-0.0014519185495108,-0.008287287054464,-0.0119820137302373,-0.0112384970631787,-0.0063961548221559,0.0007669109501714,0.0076992279589733,0.0119557218201457,0.0120042739460249,0.0077299508199012,0.0005121298308557,-0.0071570072410906,-0.0124615955148992,-0.0132820359120024,-0.0090987278028261,-0.001346568630912,0.0070533683367793,0.0128612454861343,0.0138627273341662,0.0097514730842075,0.0021634530026154,-0.0060764481257573,-0.0120779754865933,-0.0138790175765139,-0.0109819601936462,-0.0043704909474086,0.0038657305530896,0.0111227702632115,0.0149644828821213,0.0138194532221581,0.0075914557713581,-0.0020181071206044,-0.0117513533393489,-0.0177723748201918,-0.0172082814219528,-0.0096276835078676,0.0023777231832561,0.0140276161054672,0.0203721832302227,0.0185509852022963,0.0091572888080058,-0.0039755900125084,-0.0154534351149567,-0.020656927289798,-0.0176578917408707,-0.0078947092674528,0.0045940723348206,0.014925084279303,0.019299072154479,0.0163402013817136,0.007431204251644,-0.0039493106269395,-0.0135602823172479,-0.0179186737498331,-0.015518054045534,-0.0073618595743103,0.0033856723408939,0.0125680732716098,0.0166536775411885,0.0141778014300916,0.0063604462288871,-0.0034411917430648,-0.0112323731740607,-0.0141180961934892,-0.0114396716884187,-0.0048224405960238,0.002764640106804,0.0083848822533704,0.010290987267539,0.0084134789821286,0.0040804391819652,-0.0007847557064183,-0.0045342652256809,-0.0063220020540965,-0.0061353574265477,-0.0044832861279378,-0.0020253125051313,0.0006539519368054,0.0030902012027566,0.0048846025635459,0.0056488421033587,0.0050271359360315,0.0028398356955684,-0.000675440178218,-0.0046643285212319,-0.0077150103154484,-0.0083171982794687,-0.005619662946641,-0.0001141820111756,0.006226585740051,0.0106255767618574,0.0107979129993651,0.006218159072892,-0.0013963144328242,-0.0087541598971865,-0.0125212286877069,-0.0109248679065072,-0.0046104473148848,0.0036560884802108,0.0102638392919777,0.0123911419405978,0.0092443256285883,0.0023477876590274,-0.005219557836931,-0.0102478873780328,-0.0107897009001526,-0.0068958560065752,-0.0004375109413131,0.0058002481000995,0.0092951963412083,0.008761336238231,0.0045977259472615,-0.0013106396486124,-0.0063677719129599,-0.0083540642093015,-0.0064135784332687,-0.0015016032284072,0.0039824442748302,0.0073001618798885,0.0067400040003762,0.0025539473441624,-0.0030754086800834,-0.0071034606546513,-0.0072308615918518,-0.0032055279383305,0.0029305425827487,0.0078598803457272,0.0087693315114774,0.0049200673130718,-0.0018783875854696,-0.0081730124266248,-0.0106664540652448,-0.0079388783216271,-0.0011817613068439,0.0064112058902925,0.0112331857959315,0.0109970498368024,0.0057727299814647,-0.0021064332321028,-0.0091485232768759,-0.0122662671140487,-0.0101032171321143,-0.0035870279120347,0.0044822575262925,0.0106271702255113,0.012193188334345,0.0085280098647922,0.0012917954735416,-0.0062956684687405,-0.0109442021485503,-0.0107907928009659,-0.0061681293448094,0.0006892865060409,0.0067759216722329,0.0096744873432181,0.0085066792198311,0.0041188431547705,-0.0014591013209404,-0.0059471527721832,-0.0077212637399283,-0.0063664377779349,-0.0027239181430227,0.0015424526089378,0.0046763360039519,0.0055584470236821,0.0041274219446785,0.0013119324215518,-0.0014765638078834,-0.0030270581427024,-0.00285335713428,-0.0013370624319897,0.0005224066033366,0.0015980535593345,0.0011713461178822,-0.0006557426303949,-0.0028489794226302,-0.0038328649774367,-0.0024979519552273,0.0003594791622349,0.0007692771222105,-0.0012413021501168,0.0574195899071227,0.0377235513845972,-0.0656150932232039,-0.1289861912164469,-0.0070828062633092,0.0860341167665309,0.1025814944472712,0.0127484473271786,-0.034842624926994,-0.0512994289936135,-0.0418421787247671,0.0041167346201607,0.008418815285968,0.0253745927152861,0.031154877512466,-0.040706800490163,0.0090434740353233,0.0105348956219183,0.031495984093256,0.0099698284492287,-0.0605602384751392,-0.0161073727953665,-0.0285001027419511,0.0297401749077173,0.0398255982866137,0.0100485784806613,0.0497136122984229,-0.0378443423168383,-0.0765214062312995,-0.0350432300426369,0.0772186596589192,0.0416045808536552,0.0012858094707469,-0.051586750040055,-0.0272688550868815,-0.03253030765876,0.0920980069626258,0.021944754457677,0.0221293878916694,-0.0379928225840943,-0.06352658996206,-0.0136777228895486,-0.0234289617477346,0.0301257289198217,0.0558705779781665,0.0753048101859743,-0.0273805288444315,-0.0284036045279735,-0.044036324478564,-0.0195509907971479,-0.0472856088187568,-0.0146060717603827,0.0500055230101025,0.1102934218354769,0.0804556121184554,-0.0515927266771329,-0.1294703262979176,-0.0827668860190395,0.0159553934065699,0.0776323892962416,0.0530697555052655,0.0157787067702836,-0.0064186634458801,0.0037425698637481,-0.025507045342463,-0.0512641217656703,-0.0397348501106149,0.0325931256873977,0.0464391232309485,0.0161866203951376,-0.0148786008137308,0.0018786248826107,0.0110070217633561,-0.0019337162259396,-0.0142145907074128,-0.0182777836403971,-0.0109289977600888,1.0817100307223124e-05,0.005550730640643,0.0093540124681477,0.0141217720731765,0.0166922564348672,0.0057612898944496,-0.0056456098769059,-0.0140616527236073,-0.0160845540089438,-0.0130754369771568,-0.0078227563795594,0.0061934147613151,0.0144406062173489,0.0160633548991546,0.011823120930771,0.0038804808159026,-0.0047807375178301,-0.0112074891204886,-0.013360687340369,-0.0107276658393747,-0.0044423187795965,0.0031416682278763,0.0092889103803275,0.0118491568019751,0.0100151388839465,0.0045947514150971,-0.0023103835112109,-0.0081054796299927,-0.0106791552380467,-0.0091796933837976,-0.0042956307218082,0.0020488442094424,0.0074401062876153,0.0098692427054605,0.0084583334012942,0.0037788677855643,-0.0023486319199202,-0.0075234035959189,-0.009680838346921,-0.0079161996226138,-0.0028817442606287,0.0034237565957308,0.0084178668457069,0.0099731492679536,0.0073256217789757,0.0014616297593318,-0.0052231604158623,-0.0098894968107454,-0.0104506980178575,-0.0064916712788249,0.0004798811639765,0.0075739537338959,0.0116760135213324,0.0107976724745962,0.0050589413245292,-0.0031958470525899,-0.0103242978250797,-0.0130275332943329,-0.0099468158898498,-0.0023873325880448,0.006249831309468,0.0120695822283597,0.0125157887548237,0.0075275941354194,-0.0005201262900018,-0.0080077153095855,-0.0117615952755004,-0.0104192568453751,-0.0048747727413146,0.0022951495169828,0.008054375229373,0.0101856892106792,0.0081030560940635,0.002941755925575,-0.0030255248847869,-0.007363998917251,-0.0084476520842426,-0.0060577981179191,-0.0013953943881938,0.0034804053532847,0.0065479879198899,0.0066680338640954,0.0040100280962552,-0.0001062213421597,-0.0038419942945057,-0.0056368471180714,-0.0048370548017673,-0.0019269915888987,0.0017035088202403,0.0043617975742422,0.0047992833399764,0.0028015862890348,-0.0006570027680289,-0.0038214033010946,-0.0049956390514359,-0.0034351432066009,0.0001787334893358,0.0039923047318085,0.0059029591731928,0.0046996625655271,0.000791413595468,-0.0039169646238884,-0.0069738612279585,-0.006660965366115,-0.0029259840883916,0.0025256594431949,0.0070424667802111,0.0083480725720292,0.0057079915091775,0.0003314889199951,-0.0052211449533897,-0.0083273360618166,-0.0076077066800609,-0.0035625234092159,0.0017729094730485,0.0059259872723986,0.0072117073608951,0.0054337627399128,0.0017633893493611,-0.0020166457836907,-0.0044123317122616,-0.0047994711691489,-0.0034865129212318,-0.0013550812996637,0.000657930386315,0.0019675353303022,0.0024736354594184,0.002408283365133,0.0020342653296219,0.0014170687975413,0.0004433305286551,-0.00093020584324,-0.0024181747680143,-0.0033988762607424,-0.003232022824209,-0.0017074224836664,0.0007025122903684,0.0029991986439235,0.0041560336623863,0.0036534592436508,0.0017276780603661,-0.0007861130681916,-0.0028778465894174,-0.003795310208218,-0.0032934152275591,-0.0016565500270019,0.0004526680154303,0.0022495614737819,0.0031179410822122,0.0028350646659078,0.0016251378846269,1.283384025336099e-05,-0.0014289868872869,-0.0022866873982828,-0.0023840754204994,-0.0017631713085187,-0.0006424822456558,0.0006269616221143,0.0016444530212465,0.0020935845743439,0.0018672868846157,0.0010987657904726,7.356727955550376e-05,-0.0009107525495499,-0.0016360425605606,-0.0019622385029802,-0.0017864546683483,-0.0010554191059532,0.0001407045241345,0.0014791426826395,0.0024518677832888,0.0025906196424448,0.0017472324538707,0.0002228010195499,-0.0013723827351172,-0.0024477086101603,-0.0027230544338326,,,
0.0068754838118555,0.0065019538385654,0.0042696748212169,0.0008580907486371,-0.0028175905249871,-0.0057416270696142,-0.006984517927922,-0.0059835651953421,-0.0028435752112487,0.0015190619359767,0.0055640589048755,0.0076795427751102,0.0069013206351981,0.0034310693281938,-0.0013685041967391,-0.0055501999237021,-0.0074517863312509,-0.0064153213977699,-0.0030095184822657,0.0013078858684764,0.0048615781512277,0.0064144050376486,0.0055474379394788,0.0027027486388409,-0.0010276378584723,-0.0042657178767712,-0.0057991651292236,-0.0050291675948802,-0.0022453849797237,0.0014388106302366,0.004510799479014,0.005673769859415,0.0043939715569121,0.0011588191071414,-0.0026722601864636,-0.0054037804459957,-0.0057392676486289,-0.0034004123188342,0.0006700265340728,0.0046516939076545,0.0066304352451269,0.0055086806189152,0.0016188314836211,-0.0033146054971487,-0.0069301620476154,-0.0073752537602075,-0.0042626886670913,0.001072564376591,0.0061652875257188,0.0085738357008125,0.0070392824477653,0.0021075847206218,-0.0040675763763786,-0.008658051852082,-0.0094332537240846,-0.0058218189290752,0.0007252307696256,0.0072883177613882,0.0107679716316711,0.009355827414857,0.0034848096649471,-0.0042584328525285,-0.0102928026212157,-0.0117474298294538,-0.0078608452744265,-0.0003545367828914,0.0073991676102288,0.0119616094460209,0.0113624475120093,0.005888831523616,-0.0021351608488297,-0.0093754907465611,-0.0128385143099988,-0.0110258960288488,-0.0045150472044843,0.0042019919235733,0.0115809006797364,0.0143628195438567,0.0109767686733042,0.0024441402986273,-0.0077504916823186,-0.0150020215171973,-0.0156955291384616,-0.0090904528898005,0.0020701557779696,0.0126868375595858,0.017699348652779,0.0145660054627944,0.0045661612483792,-0.0077394662056414,-0.0166353831920931,-0.0179451042491309,-0.0110140286647942,0.0009633561085932,0.012449355864725,0.0181981930390497,0.015727968898148,0.0063936196000982,-0.0054290800716368,-0.0145203214666142,-0.0171747459201539,-0.0126368968759746,-0.0031322034071602,0.0072898677337022,0.0144706597184701,0.0157233924596453,0.0107559552215944,0.0016761701766576,-0.0078811101846697,-0.0141763361609917,-0.014807514585826,-0.0096241105476777,-0.0007592593429805,0.0082322490682519,0.0137926280793443,0.0137793919942154,0.0083213782578102,-0.0002400078531419,-0.0083258141933131,-0.0126363814597642,-0.0115744565943665,-0.0059275522212883,0.0015373628320935,0.0073972462429913,0.009170368812699,0.0063918256713535,0.0006416085255936,-0.00546153792684,-0.0072889651022432,0.0194905202915753,0.0200519842046556,0.0011748825309042,-0.0418088048226916,-0.0967301647245605,0.0354321370457806,0.0794055207020201,0.0527667003426382,0.0024736970316352,-0.0317845867262971,-0.0430579545882563,-0.0335051555552594,-0.0105956111660478,0.0150468294653681,0.0410850912104355,0.0430396206052897,0.0123924087914929,-0.0296795873070672,-0.0765490881484011,-0.0323626030147611,0.0460013056010026,0.0472503194049918,0.0340554975076684,0.0149293508965372,-0.0102191572109221,-0.0517676776632662,-0.0640728177304433,-0.0546189274179111,0.0694865818570944,0.0766829691977501,0.0433570383285814,0.0037322515049528,-0.0185115973958488,-0.037792914791338,-0.0735060257125026,-0.1206363960580321,0.0977767068241739,0.1570121067763377,0.0797284844242821,-0.0611491884276486,-0.1763802175749444,-0.0284992213136219,0.0467945827479007,0.0576861895782441,0.0378672831976166,0.0244005190581835,-0.0294480824105722,0.0204325804554645,-0.0500410006536212,-0.1212766650887126,0.0251960307526129,0.120242932360592,0.0742475368162696,-0.0668535504071439,-0.0733842156053179,0.0229672384624942,0.0515751383455198,0.0211111866877355,-0.0783756646329909,-0.0895131908016342,0.0900539340323509,0.0720534143555293,0.0125803362679335,-0.0170674620398339,-0.0975263823701227,-0.017056427722016,0.009500242646725,0.117843528753938,0.0737051471605506,-0.0784880937071696,-0.0920134806204359,-0.0572164969400965,-0.0242937455202253,0.0754682839231702,0.0977499386099005,0.0594328608034656,0.0296209852241997,-0.0714206600366185,-0.1753806373877877,-0.0780390371431784,0.0772970796454706,0.1498438968353321,0.0498527116768813,0.0346834531056317,-0.081715708888752,-0.1149446812396675,-0.0129989419339753,-0.0039658526391566,0.1021236339323172,0.0730551373535659,0.0045730792141437,-0.0903083422051974,-0.1621470880763288,0.0850877234935202,0.0975724949274621,0.0832011147964116,-0.0044215981097507,-0.1153974751209064,-0.0435642752978366,-0.0753432100010471,0.0902791929841264,0.1179839626729268,0.0423455444999101,-0.0863670480458732,-0.1374537748529346,-0.0195986714515662,0.1358141117965175,0.1092795398780696,-0.0171670677409821,-0.1004048610031706,-0.0931665762573289,-0.0005868303116452,0.0219042194568306,0.0764985936024872,0.0640432604798625,-0.0128751808081451,-0.0268588844935402,0.008990157913159,-0.0017010319962856,-0.0926667978173557,-0.1265901852119251,0.0708112276379501,0.1679697518230301,0.0670481685784022,-0.0184592387534416,-0.0934711457688098,-0.0520465047299786,-0.0191913234062906,0.0437996700044634,0.0017059602403978,-0.0272665696703796,0.0032371234009787,0.029446513727937,0.0381558116704164,0.0320455572958137,0.0075309136643393,-0.0280318060917617,-0.0673574831629554,-0.0668422953964197,-0.0185249366833919,0.0532876682627114,0.0692273164835015,0.0581106154863678,0.0047195846431734,0.0141372125205468,-0.0293543515510757,-0.1060558350260988,-0.0712694798547063,-0.0365254889017609,0.1017009048576989,0.127508928101508,0.0589021769568714,-0.0436350684352436,-0.128795042397769,-0.0240613848278043,0.029894473728336,0.0195167068267196,0.0195959836482075,0.0085122728322069,-0.0096137933226333,-0.0255639870685582,-0.0292491629061138,0.0327545500020399,0.0445267023310836,0.0313137105722032,-0.0067442666715265,-0.0512238896904824,-0.0386367877871072,-0.030663840334201,0.0075299491973104,0.0549998037709317,0.0316849438812274,0.0091522530094711,0.0013292945221825,-0.0118836848017701,-0.0167496563153793,-0.0217917492684215,-0.031048588120075,-0.012836421475989,0.0324848187931009,0.0365983019757794,0.0210883659641455,0.0030682873955894,-0.01153279921804,-0.0199070844987524,-0.0196779864359555,-0.0120950928081605,-0.0026100107641984,0.0068664489121425,0.0142683414881094,0.0195983201197104,0.0139953629967877,0.0018205322486286,-0.0107061401088481,-0.0179352694037292,-0.017008769234659,-0.0088416282264537,0.0025753115928307,0.0121533773640499,0.0159869638424198,0.0129143671973834,0.0047646398114982,-0.0046762215660325,-0.0114190752866281,-0.0129483981578767,-0.0091297648629682,-0.0020324847215462,0.0051581410094176,0.0095748969348086,0.0097861046460144,0.0061694045141857,0.0005232315395357,-0.0047818576772971,-0.0077249240121424,-0.0073338109634882,-0.0039860708904266,0.0007726101169449,0.0048595911768256,0.0065293561440498,0.0051356056442545,0.0014283103781712,-0.0027784247741514,-0.00544278671309,-0.0052652530965917,-0.0023371263735543,0.0018628519715838,0.0051615219973003,0.0057727915976365,0.0032440878790668,-0.0012330139538452,-0.0053625157408627,-0.0069139599053061,-0.0049301019476532,-0.000295822484137,0.0046919972041247,0.0075368337905257,0.0068479595338258,0.0030103082633449,-0.0021038542966465,-0.0061486227321408,-0.0074495718419886,-0.0056890297427647,-0.0018593671083111,0.0023630404461822,0.0054043534216217,0.0063522003746865,0.0051306266117115,0.0023542006933647,-0.0009858814953817,-0.0038611664294111,-0.0054749697730635,-0.0054217973336138,-0.0037441444048358,-0.0009070170526238,0.0023004795642298,0.0049348710948323,0.0061316931122533,0.0053737326232585,0.002725323645414,-0.0010761087714198,-0.0047707684547622,-0.0069796959041691,-0.006738127105327,-0.0039430133530898,0.0004986549842316,0.0049341308912844,0.0075896430788389,0.0073239869164455,0.0041708988412713,-0.0006170510527611,-0.0050846366518011,-0.0074259281525217,-0.0067687108899178,-0.0035190794270852,0.0008815009566006,0.0046361991318293,0.0063560903856502,0.005560654781459,0.0027562023031828,-0.0008539471130378,-0.0038607357214205,-0.0051656483332177,-0.0043703576759873,-0.0019143707923333,0.0011077545947681,0.0034053278406345,0.0040496601361834,0.0028813311434424,0.0005647019352305,-0.001748238862726,-0.0029839216724842,-0.002659644356129,-0.0010828523990192,0.0008592634324779,0.0021932965703354,0.0023498612445183,0.0013788992351481,-0.0001858169533358,-0.0016561603375658,-0.0024748494900517,-0.0023377693304444,-0.0012138773367243,0.0006256822265542,0.0025729950373971,0.0037776175965148,0.0034725999605509,0.0014364676870289,-0.0016951249664456,-0.0045518553827344,-0.0056370599915692,-0.0041467548462362,-0.0005236110722573,0.0036372769611186,0.0063478155050919,0.006252675226843,0.0033417351312137,-0.001046012119079,-0.0049049970831926,-0.006542529477868,-0.0053513241673348,-0.0020194443304631,0.0018820033687715,0.0046892298615955,0.0053949543225214,0.0039907745962929,0.0012973766365618,-0.0015281086997053,-0.0034921806046661,-0.0040565459911863,-0.0031989211982183,-0.0013326340548586,0.0008444948407601,0.0025598239038475,0.0032202949231586,0.0026380702411898,0.0011154473049989,-0.0006792872648916,-0.0020041922877662,-0.0023652138448247,-0.0017121287600284,-0.0004281657008128,0.0008611878971171,0.0015650012671783,0.0013829589584369,0.0004520391850938,-0.0006874674936876,-0.0013404695350522,-0.0010517562760846,6.279925453856617e-05,0.0013061545586346,0.0018056726956752,0.0011172538433668,-0.0004044798709796,-0.0017940301194855,-0.0021347650900282,-0.0012088517928011,0.0003618029288148,0.001576504693561,0.0017410077803633,0.0008766701756601,-0.0003722572116844,-0.0011908324875644,-0.0010878029725752,-0.0001637908101303,0.0009632721376942,0.0015250316166889,0.0010655719891943,-0.0002634830505118,-0.0017601762300131,-0.0025572119464589,-0.0021066893027394,-0.0004857022431459,0.001630887511303,0.0032895963758838,0.0036913672175988,0.0025388852873685,0.0001699704103291,-0.0025515558290042,-0.0045391099717218,-0.0048852915791394,-0.0032398535499215,-3.275905965429384e-05,0.0035724183921983,0.0060525806320541,0.0061592252281354,0.0035689030901429,-0.0008056301541116,,,,
