-0.0120787043558339,-0.0025733396548534,0.0022382140019426,0.0056738941632739,0.0086771357866075,0.0078013381715203,0.0006988684499913,-0.0047580482522536,-0.0050516762700484,-0.0041919523716243,-0.001870333569627,-0.0009271962336952,0.0024963882671779,0.0025526814752741,0.0037401855648017,0.0013105558947506,0.0007536190925783,-0.0019807914506243,-0.0013505888346656,-0.0047380996322634,-0.0008071797678506,-1.1121052328339869e-05,0.0019277425029232,0.0028981728928835,0.0011732470213164,0.0003001212091877,-0.0016989861405316,-0.0002388984323796,0.0034757567423544,0.0005557481063189,-0.002283654415111,-0.0046191322830182,-0.002570909977356,-0.0014528842625705,-0.0002949452040243,0.0031574698147408,0.0048178615055975,0.007824072892128,0.0038373835869871,-0.0024148000039578,-0.0045817956265792,-0.0081777938469198,-0.0088775553499992,-0.0083516399089815,0.0052208008474286,0.0100557947320033,0.0107573290977601,0.0095671288629327,0.0029482602137523,-0.0029685373945985,-0.0096838943167497,-0.0132259717016435,-0.0110965923067179,-0.0053778345560144,0.0038103485941075,0.0147005300500025,0.018134375362756,0.0120059454261735,5.230040305783956e-05,-0.0112914893063015,-0.0167296546188165,-0.0147909915007315,-0.0055391056856822,0.0049501589256639,0.0108425145842856,0.0145264106352838,0.0076363491894215,-0.0018182860828338,-0.0028382345149175,-0.004634180315999,-0.0057874817676462,-0.0054779879629466,0.0026494064334556,-0.0005172275971482,-0.0280542657199632,0.0128219822259158,0.0374237824506654,0.0135305736677456,-0.0113477117625713,-0.0205407324977421,-0.0139369710564989,-0.0041163752944271,0.006461738737342,0.0151012559649114,0.0122930212405318,-0.0023153396663894,-0.0270309555515839,-0.0062310637055016,0.0138094336802688,0.0152709403706403,0.002708485481927,-0.0054911439645912,-0.0023334062278283,-0.0024155277754395,-0.0031882433237639,-0.0002513400709552,-0.0064627876702135,-0.0184319777603783,0.0179174619371024,0.0178968658802629,0.0116296670054345,-0.0009849530915933,-0.0147418781898288,-0.0183041197140714,-0.0024730188366272,0.0071054050168687,0.0146950971092385,0.0135583542783698,-0.0104878093907536,-0.034340700308799,-0.0055867704499591,0.0262176752871456,0.0208920945888,0.0039943929043208,-0.0049762880119767,-0.0026736107861663,-0.0021144123068237,-0.0130685193391678,-0.0262327193646579,-0.0295552735203792,0.0341932108963718,0.0400692753963369,0.0231946990296785,0.0035806510946788,-0.0092648783508982,-0.0239476752246616,-0.0279594605694211,-0.04334335689093,0.0058188667626576,0.0345062802773634,0.0453480426233054,0.0314446285807847,0.0028987890788569,-0.0255110799583463,-0.0542374298775224,-0.0459210234591342,0.0293196093484065,0.0300343677377473,0.0003977320861536,0.0276098910403252,0.0189043685736936,-0.0011659498955469,-0.0178529293276099,-0.0266804749664668,-0.0275859082632732,-0.0276695889084818,0.0253542539878559,0.0480403585124378,0.0346010180905783,0.0054654625460273,-0.0309966632775051,-0.034564722420364,0.0018799741855874,0.0011889228625505,-0.0139785206974584,-0.0242328526974101,0.0408613514756004,0.0424511276948021,0.011360499475067,-0.0223709620759018,-0.0168892099532102,-0.0150564215736346,-0.0106578698687414,-0.0047759085859067,0.0029885532346518,0.0090614524514531,0.0138389800638297,0.0211543875619303,0.0052195979169592,-0.0093853556931721,-0.0089521441792513,-0.0149087311859505,-0.0138380686824593,-0.0097298468117915,0.0048668413183313,0.0164649970458687,0.0138215055555031,0.0147291184332651,0.0089076193799573,0.0032318702647287,-0.0182178980859986,-0.0360158444128307,-0.0403886139672588,0.0264577097739855,0.0348743373951576,0.0285931617731437,0.0069460708137526,-0.0154122640418635,-0.0287755472725658,-0.0045838214460472,0.018146171886589,-0.0138586032197201,-0.0053921919667931,0.0168187412938062,-0.0031028287126182,-0.0141036399500164,0.0258614984296298,0.0042584299830202,-0.019456708953065,0.0216971478162371,-0.0035318005478448,-0.0420936124811534,0.0071621959914201,0.0218743478094551,0.0112362265994617,-0.009143838362681,-0.0058837302391041,-0.0116739746293315,0.0287666990441159,0.0099535133356499,-0.0176226583945728,-0.0356459395616526,0.0029809537298811,0.0287174916718495,0.0252064536317457,-0.0040457626373652,-0.0392671571863398,0.0002187060334392,0.0108989808212195,-0.0204230556910568,0.0256192755305728,0.0307656420026911,0.0003590408840275,-0.0248745993311266,-0.0427276865444006,0.0194177622665393,0.0146302093608481,-0.0144907669495426,0.0155272348000286,0.0285871342199381,-0.0001476522234054,-0.0204617151023833,-0.0318187843906074,-0.0185447247308313,0.035183899610831,0.0379564981562745,0.0058814648074719,-0.0288690160303806,-0.0270177666100474,-0.0100610864084859,0.0196280687677308,0.0192768694180296,0.006077477745754,-0.0072378578660394,-0.0305647409185582,0.013701938564917,0.0389304087263168,0.005464217301433,-0.0393984768532081,-0.0258126563908159,0.0162606905017712,-0.0020797716555704,-0.0146985592180236,0.0294292287056294,0.0301873088790713,0.0067267500162231,-0.0046713758178147,-0.0090952504514638,-0.0262475640167568,-0.0482100270074173,-0.0139437480260483,0.0265917883621298,0.0567677847092732,0.0322341971882642,0.0075790357881384,-0.0142400610052299,-0.037399871830785,-0.0364030874434783,-0.0361254878687751,0.0271224049129035,0.0361537702509676,0.0209678317487599,0.010927025283681,0.0081767568423579,-0.0106602735328277,-0.0266272971331049,-0.0220081723369281,-0.0042343984521782,0.0071725412789018,0.0173581408953557,0.0163620393076581,-0.0012114879062423,-0.0247942826809237,0.0222484308235541,0.0144671988036414,-0.017084951556251,-0.0409464238317888,0.0187180334166526,0.0279185707638708,0.0124168179254725,-0.0106468941345728,-0.0303212040053251,-0.0372814105272559,0.0325565375845322,0.0409920216179001,0.0161987547830708,-0.0100746104852052,-0.0178715896640994,-0.0162567163800212,-0.0077138496017502,-0.0012885249916565,0.0040827101281158,0.0049004700457489,-0.0077656825291531,0.0018524290254897,0.0353503665029428,0.014047033346846,-0.0006857377370591,-0.0198269882075317,-0.0235779219235426,-0.0237597017976111,-0.0337721173135317,0.0298331801168774,0.0513630798674106,0.0288427407754837,-0.0011400353693406,-0.0274540950176262,-0.025531122457043,-0.0002784537273936,0.0046827613623521,-0.002600591475703,-0.0091292788120291,-0.0207656477140426,0.0305418600982488,0.0342712783388066,0.0147061730218656,-0.0204383976030429,-0.0362597614755052,0.0036781502517707,0.0031916226698691,-0.0001467241937466,0.0015992431065253,0.0030172979567165,0.0042694814636553,4.204508438385815e-05,0.0023677077022366,0.0051700329229896,0.0008060518396895,-0.0040689217293683,-0.0038600268590803,-0.0055505121966564,-0.0094407439032465,-0.0015495454082599,0.0106059881554266,0.011800545913357,0.0067296313252549,-0.0001925222035393,-0.011406933546193,-0.0093632213537316,-0.000363128747109,-0.0005816368855801,0.0045894558180524,0.0074156020565557,0.0023241547760262,-0.0012224837768193,-0.0050527969365283,-0.0030540350671456,0.0009252389384346,0.001872258630129,-0.0017904530910056,-0.0005623857660803,-0.0009503765137599,0.004487914739949,0.008151531176178,0.0008278327843202,-0.0052295584825189,-0.0094491268731075,-0.0083224854773686,-0.0017662571061519,0.007817670643135,0.0117246379998457,0.0098805579530892,0.0035397630208635,-0.0077917111229421,-0.0152891136477983,-0.0081410085039945,-0.0007699734447844,0.0035636795931639,0.0083263708343734,0.007167231918061,0.0041770484247417,0.0019880821687924,-0.0035287458807727,-0.0039252464669441,-0.0107055449258336,-0.0041929916048898,0.0006843689532102,0.0059594605027296,0.0032679774096503,0.006435202478775,0.0029152804491805,0.0001584096912729,-0.0033220490431269,-0.0038705325161919,-0.0052058839916888,-0.0044656505646132,-0.0019226648854659,0.0040980375524679,0.0074701344230801,0.0046045177030243,0.0019167596690007,0.0018560958252698,-0.0048521625976169,-0.0044657169254927,-0.0053376234474485,-0.0042234983254745,-0.0010275185652919,0.0057174493767983,0.0044529450314565,0.0031303749687754,0.0059117491422711,0.0039486736018043,-0.0055286773344816,-0.0055074528654374,-0.0061356141645121,-0.0047075102500937,-0.0051850615656128,-0.0003426141180769,0.010188434074281,0.0129684973930338,0.0080323546323316,0.0011720878915622,-0.0061615796985493,-0.0128101600452702,-0.0104233467398673,-0.0059227435629301,0.0024319493310596,0.0089993908726765,0.0097977730575383,0.006459040584594,0.0031704953748752,-0.0018434871818086,-0.0077188424129327,-0.00806016101293,-0.0043921390830068,0.0011910929351782,0.001059044061259,0.003543589500338,0.0048355850936716,0.0015609193084745,-0.001671122245124,0.0007797240619968,0.003106428921835,-0.00029526321877,-0.003220858338889,-0.0052145817094357,-0.0017818972196296,-0.004018400503891,-0.0022356498465888,0.0063002951727274,0.0105225866997364,0.005750090677443,0.0009952745081742,-0.0033545270917933,-0.0067947327740043,-0.009943086144106,-0.0059052084830384,-0.0016034795123364,0.0068301131368717,0.0087734017031175,0.0071895914562191,0.0075251245730953,0.0004804771453115,-0.0054289011374316,-0.0117765167744023,-0.0150836813278013,-0.0016818833452912,0.0062660919422736,0.0103684628560863,0.0078441364601518,0.0051375027544191,0.0008550726161787,-0.0024586219472663,-0.0073471596843036,-0.0097979579991182,-0.0024878139693698,0.0014688287881679,0.0058970578481206,-0.0003499902821803,-0.0006792770428323,0.0077350990122978,0.0068502976988675,0.0007090137937395,-0.0048651502848657,-0.0073468463754818,-0.0098089550086975,-0.0034689530890859,0.0002619795184655,0.0094577148955558,0.0103885548575117,0.006847945459473,0.0015040971207022,-0.0061292604432951,-0.0080693007123216,-0.0081561895596012,-0.0047916619491211,-0.0011060713253061,0.0046154786721409,0.008014817744148,0.0080196822832199,0.0059291481287375,0.0042141735680852,-0.004899200554462,-0.0116786813556312,-0.0132542893171444,-0.007762559015614,0.0006946774648515,0.0090753612707507,0.0176064741020561,0.0120086031533799,0.0012852534283935,-0.005302458685701,-0.0091958547445114,-0.0135678634954716,-0.0097005562713265,-0.00480604120365,,,,
-0.0051171117150987,0.0007251062290383,0.0006547377712487,0.0056094394378777,0.0078123393094381,0.0008400683146875,-0.0016719677671242,-0.0030179752526782,-0.0043436647768344,-0.0052354167878254,-0.0034482454143728,0.0026874740361709,0.0044435036557466,0.0047722014110178,0.001763419846705,0.0009624006212836,-0.000366093351835,-0.0032616201369263,0.0002482268209065,-0.0012624560128544,-0.0030150934169572,-0.0070953458777031,-0.0031353325556448,0.0090007442995335,0.0078318082710209,0.0070704975065661,0.001813034785427,-0.0046907811533994,-0.0117109554054742,-0.0042465900713584,-0.0020673937871883,-0.0007991635187501,0.0068050924274048,0.0062842294601041,0.0032239447918326,0.0008994766671313,0.0005453738508879,-0.0016659926559023,-0.005552436019021,-0.0046187882192691,-0.003110185335831,-0.0032978450852552,0.0029893118061679,0.0107646570994945,0.0067801760964125,0.0005157973037517,-0.0058230062082719,-0.0039425774312011,-0.0036006116617142,-0.0013779276721718,0.0001695113007431,0.0008024320576465,0.0010169759914016,0.0009363008495285,0.0051422829858313,0.0047118701217874,0.0009845408910564,-0.0063842519068438,-0.0075115014455794,-0.0065713472602797,-4.404347039362779e-05,0.0057039233194709,0.0099004855582323,0.0095052327489088,0.0016529930535751,-0.009173773651456,-0.0083470982293655,-0.0096554229571111,-0.0036570062798628,0.0008903766018619,0.0110260195292284,0.0102663735542105,0.006955693258997,0.0056424138941779,-0.0043666702479505,-0.0121757948847286,-0.0136090186934397,-0.0112816089213069,0.0001471005419889,0.0088666791590643,0.0156242651776996,0.0122759729227036,0.0093506703936576,-0.0034710579003077,-0.0120846871739569,-0.0150552067504399,-0.0123676679300093,-0.0002648468252806,0.0070661870872221,0.0076256759255855,0.0048671618147853,0.006704747170468,0.0077290930192712,0.0005335670939782,-0.0037372860921728,-0.0079300096918981,-0.0115726973257294,-0.0096249959885997,-0.0033141046688144,0.0103332908521774,0.0109362475995811,0.0072876690809533,0.0070927968278329,-0.0001130189484079,-0.0015584417786583,-0.013140076234896,-0.0105194354385087,-0.006509265231078,0.0065042264421513,0.0065999799688775,0.0084138865882329,0.0019758790685367,-0.0063229094481109,-0.0019771693182345,0.0054464970298528,0.0088170224999877,-0.0031297644087113,-0.0066766262097464,-0.0020390061285704,-0.0136176576423354,-0.0327563258729329,0.0171730384065325,0.0445233804290475,0.0317119434031672,0.001064723604405,-0.0245598077715765,-0.0441931023142632,-0.037703263829828,0.0132406399014338,0.0377411580769323,0.0240491208925113,0.0054523716554134,0.0005261638267443,-0.004235860142928,-0.009149723971004,-0.0034784146697658,-0.0191151897815043,-0.0354086068459803,0.0123281886297822,0.0314792129916895,0.0303261619551464,0.0145253834202047,-0.0095125528060409,-0.0346416095900783,-0.0380772845021035,0.0284166557856324,0.0244187303396573,0.0096686968845137,-0.0089334254284409,-0.0426856225075702,-0.0054623512742178,0.0316700581166293,0.0255936027166408,0.0072688770464442,-0.0037825868117632,-0.0131823903487472,-0.0331405809506078,-0.0008214032518698,0.0196938130032428,0.0061128950514601,-0.0230031964730553,-0.0098875982477409,0.038558356370511,0.0303714757940607,0.004199028297558,-0.0149910520707961,-0.0413723223812622,-0.048354807020872,0.0193670729368476,0.0286756243409998,0.0162021061109255,0.0396631586119903,0.0087258150329895,-0.0250551863430376,-0.0622942056755524,0.0076759591054401,0.0181717282075176,0.0011112655712741,0.007289694464837,0.0030030911847664,-0.0068845056347925,0.0262841520976323,0.0117690392456495,-0.0200245954651072,-0.044351737132708,0.0029155949014843,0.0286177425712903,0.0171093416854998,0.0064676704752219,-0.0180685300060455,-0.0414638261805464,0.0129477780698995,0.016967344088607,0.0221325868375112,0.0161329844916092,0.0046374787951046,-0.0159038809894797,-0.0320399462286421,-0.0418736602664626,0.0003027204224628,0.0340671452707306,0.0332741583066931,0.032110706765691,0.0025808756920924,-0.0484889221707544,-0.0043119455010693,0.0089440073865364,-0.0135872656657963,-0.0371621920784503,0.010671755578028,0.0271187606848636,0.026318711960145,0.0168551558575412,0.001385631305023,-0.0277986827463858,-0.0421624864888163,0.0239464205343421,0.0194115572578819,0.0030552303326828,-0.0247560617790771,-0.0374176759530134,0.0271843223748315,0.0349339095868618,0.0230168861445731,0.0047532778823248,-0.0170487206874239,-0.024759341156328,-0.0384570613021736,0.0109915201100667,0.0080031921447661,0.0139430233233437,-0.001287620988459,0.0185067611956062,0.0306805472985795,0.0078286668078733,-0.0253135517082728,-0.0478561819872793,-0.048269218841886,0.0258397007196775,0.0401746249286652,0.0334830545710769,0.0177466979450104,-0.0066840816045646,-0.0302224365403034,-0.032979301720522,0.0060241849374231,0.0082540687965742,0.0027320563923457,-0.0141510273917364,0.0068687877376288,0.0378629747003519,0.0227861968585382,-0.009976270322228,-0.0522201768260045,-0.0305248084296338,0.0307471067959994,0.0294195635436226,0.0014288516159108,-0.0252356883383265,-0.0092471092230086,0.030551529941517,0.0195323404860903,-0.0113458219251824,-0.0400956441877775,0.004063291558475,0.0170615083378449,0.0116092635559781,-0.0207559958776803,-0.0019830549130303,0.0123882371349953,0.0145108292010084,-0.00797135485642,-0.0224980218632187,0.014991559218904,0.018814526456217,-0.0066726868867375,-0.0265042055503403,0.0006622092905331,0.0041848989210025,-0.0186790005948399,0.0282523210162707,0.033473158909961,0.0096456732054315,-0.0243481117759704,-0.039992326560207,-0.0366936082609392,0.0353117089031801,0.0407216944230254,0.013505671190549,-0.0315523593787831,-0.009240082517952,0.0122430201374617,0.0113560882049407,0.0016391127528121,-0.0249527398807548,-0.0341504035302822,0.0204239901097374,0.0277676733317477,0.0222484600507324,0.0124312549025804,-0.0135285133060161,-0.032632618541891,-0.039323407980125,-0.0073877461925379,0.0367700967492283,0.0322484929671367,0.0263744856080345,0.0071982477384466,-0.0204620561200346,-0.0456270453341311,-0.0477404138373217,0.022025623718489,0.0365201445137418,0.0282326842797651,0.0123850113854159,-0.0067663984782366,-0.0262305190533903,-0.0330830608175737,0.0242271196877962,0.0181403553757483,-0.0127288683223614,-0.0259617942181639,0.0324280659316228,0.0226541971072566,-0.0244705974965676,-0.0352634391293607,0.0345678023600567,0.0267089298753871,-0.011001552355408,-0.0531919638571704,0.0083081632743001,0.0341824448632481,0.0238621822275263,-0.0058013668916125,-0.0290112909709486,-0.0421625878342617,0.0187876546411714,0.0299099614336255,0.0216995732838392,0.0071454042409006,-0.0050910771848314,-0.0317145155549027,-0.0450107418816015,0.0228348655155536,0.0270982810413749,0.0181725224131503,0.0103782096302699,-0.010537680494671,-0.038870058739511,0.0007881571220626,0.0195695769832472,0.0065965710738802,0.0045712943381534,-0.0044463637918515,-0.0114566569192577,-0.0051258241607894,0.0004986431902773,0.0061530265399062,0.0067410974657264,0.0067607056817586,0.0010953736418588,-0.0033945386114613,-0.0048123463109304,-0.0070989141802485,-0.0073672563707983,-0.0033630694610475,0.0073408774675477,0.00480503333659,0.0096784192672265,0.0067865457803501,-0.0010553442712551,-0.00124113984787,-0.0074974260352644,-0.0087135415227417,-0.0111833560313361,0.0001088276382513,0.0067453999739997,0.0043954027341328,0.0072479284411318,0.0093505859098258,0.0072854357708702,-0.0013804029532068,-0.009544355648167,-0.0159820665518382,-0.0082052531238458,-0.003533856452188,0.0045337141758301,0.0078069429967807,0.0151243988649913,0.0113797993250471,0.0006912158680963,-0.0094164522037254,-0.0131857677149099,-0.0038525679675404,-0.0015594926233863,-0.0032604764498288,0.0018353645955713,0.0010034666184647,0.0008695870273432,0.0191155521786662,0.0141334963323858,-0.0048343638657251,-0.0148926167259242,-0.0217787960237801,-0.001400321160153,0.0023978908448947,0.005892461995911,0.0120288907768657,0.0069318214389546,-0.0006926511856138,-0.006519236409687,0.0032857730072911,0.0021971679237644,-0.0031323250647687,-0.0105362445843227,-0.00931728409882,-0.0048213743852673,0.0074145631174205,0.0196759015462046,0.014264678975794,-0.0070280681435619,-0.0145310216041411,-0.00292283131215,-0.0005313967475702,-0.0014602515524776,0.0013786070090895,0.0016186396128015,0.0034479622484871,-0.0057820328049065,-0.0045706871963518,0.0076168355604703,0.0054827393087926,0.0065079493764777,0.00088188140595,-0.0087840579205325,-0.0050823544375982,-0.0049762521874876,0.0001143549459166,-0.0009781712057259,-0.0017146892886945,0.0066122913571605,0.0051765701531119,0.0081062773607104,0.0076343057086958,-0.0001060008828862,-0.0152095725651066,-0.0230423951576077,-0.0027588076714322,0.0111146787812484,0.013439070434189,0.006395138973551,0.0047368070070502,0.0002716341787695,-0.005088454199191,-0.0105659680681673,-0.0035272143272507,-0.0017547324541895,-0.0031453482853194,0.0036702507802643,0.0103928645325448,0.0075134798790953,-0.0002197644146328,-0.0037908236757283,-0.0063218299059194,-0.0059695256091303,-0.0010530404480853,0.0025306473128582,0.0039667558060662,0.002342192628492,-7.502454397424863e-05,-0.002382604627809,0.0022679158560361,0.0035663874598625,0.0005855613256775,-0.0046131036270403,-0.0062764566639901,-0.0038155243208007,-0.0032942085955449,0.0101487942495744,0.0112307063848858,0.006090962324269,-0.0024051071470221,-0.0102472718946542,-0.0121132660999338,-0.0117352114254869,0.007420014696002,0.0145971219443755,0.0114977515407367,0.0045120295338988,-0.0073775576979344,-0.0084119534476596,-0.0077248627079426,-0.0031028495172577,-0.0013505844594755,0.0019920100189827,0.0115234527264205,0.0083837993015702,0.005063274657621,-0.0017307038454636,-0.0114985679865038,-0.0166694663377144,-0.0060562083841764,0.0034065948277054,0.0099882009334814,0.0160509063816197,0.0124880987811202,0.0010298908969868,-0.0097724300246759,-0.0147379652269959,-0.0134399815032321,-0.0090258745304514,0.0027504938608357,0.013905379068097,0.0128110100069,0.0078881339904685,0.0049119282808005,,,,
-0.007282483037324,-0.0139016389847463,-0.007600578505493,0.0049088827428063,0.0045506381714839,0.0031077725515406,0.0045419189230267,0.0058135680178079,0.006641694572302,-0.0005468642667192,-0.0090696355598101,-0.0142233667893052,-0.0035690875221414,0.0025532580991611,0.003328507083951,0.007374622687841,0.0069453666232497,0.0027542028456506,0.0019067055325157,-0.0058447849607709,-0.0116475197546672,0.0003427252286258,0.0015538293310633,-0.001947258961577,-0.000544402244825,0.0061597140833361,0.0044326246710001,0.0016918988057638,-3.865574600461618e-06,0.0006672291050142,-0.0036308112903643,-0.0090648958881638,-0.0015506195951384,0.0029400441026548,0.0021201949507417,0.0018689488758759,0.0027185925258994,0.0056486919376604,-0.0013676600969714,-0.0051740365630405,-0.0016185173213964,-0.0018497216026285,0.0010067788935683,-0.000199301486542,-0.007918741302519,0.0012672393622266,0.0121050774024903,0.011323307650662,0.0028617704394845,-0.0119718747283153,-0.0196157230840771,-0.0036495242864411,-0.0037375167838542,0.0171179172606051,0.0246384922419071,0.0053429077051934,-0.0188255927127992,-0.0157050679743799,-0.0037831651639759,0.0016251732435496,0.0087651004575421,0.0080302814984092,0.0007271792376658,-0.0129500603095725,-0.0066309128270053,0.0164996116559395,0.0114053295498799,-0.0021072105194715,-0.0155916856007785,-0.0063679822729424,0.0024805521256373,0.0048478408894036,0.002561241896833,-0.0078109586150663,0.0026022838282163,0.0058979697628803,0.0011613476469034,0.0020084006015043,0.0039535169897393,0.0018708306471506,0.001904043617793,-0.0105906555096312,-0.0341747541004052,-0.0035118642998501,0.0270353936333059,0.0228800341442448,0.0082208073399261,-0.0034795295240806,0.0014599490312647,-0.0017820207793664,-0.0201920501067564,-0.0505080349798043,0.0130563053324477,0.0350419818697143,0.0220256346905744,0.0024167392747719,-0.0267754445631325,0.0184674098918055,0.0217876709617636,-0.0022955594965119,-0.0263003623028903,-0.0538134733517393,-0.0329099504569513,0.0497777086550786,0.0526727476655211,0.0248779732738575,0.004002702806213,-0.0145540238752727,-0.0187160391807575,-0.0228643872399232,-0.0311877405056817,-0.0380546990283291,-0.0019970813903564,0.0759453819443095,0.0745262406963097,0.0306697806906606,-0.0299797459921491,-0.0841175979210359,-0.0983554988576475,0.0273390129839878,0.0573850721717508,0.0540323528946103,0.0317262798067815,-0.0077842790842471,-0.0529312906163304,-0.0480922949633908,0.0188717331247353,0.033538072012529,0.0164603899074142,-0.0056126768577849,-0.0216357421593038,-0.0288411560315867,0.0123550798711546,0.0283669642146644,0.0206898512950109,0.0112019917109628,-0.0146856934684055,-0.0491780001149702,-0.0043269602280632,-0.0124065406610215,0.0247490503467902,0.0389498736752034,0.023492153923401,-0.0025930905719324,-0.0331152513263809,-0.0615984994368051,0.0134428969689337,0.0375588741342898,0.0205307805115431,0.0005214094921726,-0.0147150894897269,-0.0099658876019505,-0.0017162823009293,0.0021661851362134,0.0012492753202989,0.0136478092865779,0.006545500070307,-0.0241757049313068,-0.0201805941596275,0.0225344402541299,0.0151820577533817,0.0072333577191825,-0.0094181421610382,-0.014067214275361,-0.0060856409219906,0.0036532003909325,0.0076424155748338,0.00860414457531,0.0042225516370679,-0.0047284596520668,-0.0214419678602684,-0.0045696674092365,0.0236259394640086,0.0077504922343838,-0.0038790347130454,-0.0088694630628302,-0.0035802226160363,-0.0107502091899422,0.0063792608563527,0.0137352800501319,0.0096961477766225,0.0021661761649419,-0.0206895146769331,-0.038900158368515,0.0306664802083641,0.0360757454290265,0.0066135366809782,-0.0273756185852654,-0.0193933632221548,-0.0055186899131039,0.0087853433818943,0.0164077268254467,0.010757175021269,-0.0012840163726335,-0.0140645914705136,-0.0097210955267618,0.0017906410634544,0.0111187728376878,0.0052694714633403,-0.0012181336816099,-0.0071555968487161,-0.0111411161763157,-0.0078785984138479,0.0097470355387083,0.0196506766979604,0.0150993234477194,-0.0016216988883079,-0.0087891291016209,-0.0267496225949946,-0.0460985812802436,0.0301054781295175,0.0342006063188027,0.0328980744619815,0.0014740327246205,-0.0241217961491845,-0.0534991685557038,0.0094867175985956,0.0200601801346229,0.0146985906095237,0.0052227088509608,0.0025219236157125,-0.0171928536941363,-0.0187845622864862,0.0274008627166848,-0.0007838003087484,-0.0048317906433794,-0.021231036816382,0.0319087219998881,0.0122727818786628,-0.0332597050425631,-0.0066665459945056,0.0310094312326801,-0.007440458970793,-0.0165785749179689,-0.0142447762137705,-0.0130886344313383,0.055053323729097,0.0307919738857663,-0.0171822532546243,-0.0186994732159143,-0.0242048132426047,-0.0381651116439307,-0.0160700222509704,0.0496972906483448,0.0416773238604959,0.0096522953370054,0.0333157991719015,-0.0213216047844051,-0.0893747656155951,-0.0211139739354062,0.0261212316885874,0.0300566625658925,0.030273954560752,-0.0335860866057527,0.0137229030648973,0.0148983182715993,0.0143722459044839,0.0229068002545863,-0.0630021263489575,-0.0605879017993221,0.0044712686077385,0.0367377512032536,0.055022384169252,0.0210846215440738,-0.0299179217002075,-0.0074591775141674,0.005607511141774,-0.0090105281788528,-0.0650011447375286,-0.0053637705174197,0.054404297756112,0.0353325230240244,0.0266161825951677,-0.0330509007536597,-0.0448241756437787,0.0205850566923091,-0.002155582519081,-0.0277274585726939,0.0154298605134897,0.0417213377129834,-0.0046317216659862,-0.0291536198899146,0.0049567678563406,0.0078683862415898,0.006772314013453,-0.0171786209124835,-0.0019177296453739,0.0022699803378914,-0.0200477186399136,0.0353420640348405,0.0299816144342456,-0.0128831948496637,-0.0512719587307949,-0.0122563563970178,0.0292369750907148,0.0186768144813856,-0.0040643164579687,-0.0195305671838095,0.0285688612248723,0.0236821142105442,-0.0239319560174593,-0.0590645443224774,0.0037401056506616,0.0335351471343933,0.0280772485499845,-0.0027604620765467,-0.034094217988295,0.0168153722152252,0.025086909650012,-0.013823175025491,-0.0386227224516148,0.0195442025894553,0.0171434552133261,-0.0181103433100583,-0.0328059352584134,0.001435424612349,0.0662829657250153,0.0397165456498435,-0.0090246672921296,-0.0569416515918557,-0.0749495779707125,0.0129212870720586,0.0513628970660181,0.0264192594235182,-0.0031373213394413,0.0062214380104464,0.0040257910906541,-0.0046282285963758,-0.0057564264730855,-0.0277439083860469,-0.0498720268984919,0.0328850504072176,0.0330421485055024,0.0137230110405489,0.0123211114827652,-0.0007058939948211,-0.0156539281496352,-0.0161031911409174,-0.0101170911891798,-0.0074313979905593,0.0051940482458387,0.0043022481506867,0.0144411134212431,0.0143636646213981,-0.0001753417689339,-0.0098424176530535,-0.0040057553249929,-0.0057368136590225,-0.0025085291432222,-0.000854288351355,-0.0006616407857134,0.0002632970414233,0.0019426293818102,0.0023641468475599,0.007718735098953,0.0076617472045704,0.0020785204060983,-0.0058028854049637,-0.0173132773232146,-0.0078340537358392,0.0038144466744685,0.0058833504729112,0.0036589853173824,0.0050573727575619,0.0069423196753643,0.0006971907779646,-0.0063580236276971,0.000283161809856,-0.001239790226062,-0.006782503132796,-0.0078298921064463,0.0002973614946722,0.0023144876869688,0.0048025094592088,0.0085924446239059,0.0104424715068849,0.0047790773861029,-0.0069598415660772,-0.0121910896931172,-0.0161376624451374,-0.0081613366468131,0.0083387273510257,0.0116071069369129,0.0122200660061441,0.0097674670278298,-0.0009976757291177,-0.0069439635384194,-0.0100817054171559,-0.01192771793105,-0.0046121851957218,0.0024902885127206,0.0071940843240073,0.0091880077497753,0.0110155756788457,0.004161426993156,-0.0064986360661253,-0.0092996315526112,-0.0099352016183222,-0.0046383334597616,0.0001794260888158,0.0025107712795773,0.0066983279203616,0.0123426387826139,0.0075339049057538,0.0006213848638819,-0.0102967600637995,-0.0115993147503868,-0.0089993138176777,-0.0021790081348809,0.0062897479779291,0.0069854082848913,0.0082572965500965,0.0053355459137265,0.001904360636723,-0.0075777593917371,-0.0040126369034548,-0.0027778699154995,-0.0033297784324191,-0.003378487312372,-0.0039121437358876,0.0061045630305636,0.0063324891628608,0.0060168861989629,0.0021370954822341,0.0046518382920726,-0.0031360181805513,-0.0079316395345895,-0.0089177883666005,-0.0082448069734856,-0.0015379951148441,0.0076761732239786,0.0126655750999187,0.0070048239355242,0.0022835709984375,-0.0003581468654353,-0.0031357882582326,-0.0103743472990405,-0.0105718837728839,-0.0062849426556812,0.0005492690340991,0.012052040718264,0.0134843187985535,0.0086348061258154,0.0027212628951279,-0.0101925409206084,-0.0160732773903287,-0.0109498894865032,0.0062988973400245,0.0085247770624476,0.0046595165579287,0.000889982107944,0.0017914461298133,0.0006597506367164,-0.0042118452704875,-0.0028972666612758,-0.0006588791623574,0.0037093684413126,0.0017723577953639,-0.0021534041610871,-0.0027176425430606,-0.0008916692186039,-7.006115933648241e-05,-0.0019231172556246,0.0002249485691332,0.0048793326100136,0.007775954441846,0.002868179980285,-0.0030551502768445,-0.0113692159932209,-0.0033102327634732,0.0015773070987999,-0.000120484044459,0.0016037713327153,0.0031474718936764,0.000336830430881,0.000962631627963,0.0013823825445928,0.0066230509893255,0.00331548043189,-0.0045216256246321,-0.0107020790426021,-0.0121233774745648,-0.0017212756264046,0.0075273473489052,0.0091753460225444,0.008692295216113,0.0028085148748042,0.0019314391327074,-0.0016941935048479,-0.0078555166398494,-0.0100288538875972,-0.0060713000013387,-0.005869192622551,0.0020755728159862,0.0099054341003958,0.0169461352442183,0.0124805630504304,0.0019027556372412,-0.0090168422033884,-0.0180401224827331,-0.0196259880218118,-0.0074060388495877,0.0061725359738305,0.0181462203857243,0.016046499167965,0.0106369240828905,0.0054292443074801,-0.0085681613839905,-0.0170237048555582,-0.0161232532853323,-0.0093744830602996,-0.0010300301270062,0.0064909039172015,0.0171856416944363,0.0191690608017149,0.0112931655248811,,,,
-0.0054032352669806,0.0098591767303045,0.0174582508413243,0.0139357910769953,0.0084149300270535,0.0009467980088738,-0.0099124372419815,-0.017844130607576,-0.0188932640370234,-0.0098756270152208,0.0089840627524569,0.0163960234358713,0.0174209674747154,0.0121708682269292,3.5114403942450496e-05,-0.0104224545795713,-0.0111622152123896,-0.0110292781101279,-0.0080682326358508,-0.0028573936385739,0.0068398733937218,0.0102651216700873,0.0118165050311631,0.0083080464828212,0.0012251880885421,-0.0041341776337827,-0.012127842288369,-0.0164721413718364,-0.0047671884228515,0.0020488113502507,0.0095285853780556,0.0105070793477719,0.0108939989130715,0.0002373510712364,-0.0062075200929739,-0.0014662087832867,-0.0046039340602367,-0.0061799121458613,-0.0105412597428711,-0.0016263230587392,0.0058680835860338,0.0120949832123323,0.0106334657897719,0.0037815897940299,-0.0026197220692555,-0.0069443965484148,-0.0126006224445991,-0.0097110868859369,0.0014480931003611,0.0100469937512489,0.0103346043989213,0.004240645671018,-0.0028382995020858,-0.0068777729981076,-0.0037010001572641,-0.0018759849420704,0.0025199549677207,0.0022384717664711,0.0038366555017392,0.002737351652154,-0.0032791033939134,-0.001970052959796,-0.0040201252955789,-0.0037481311339149,-6.809386671157817e-05,0.0006857097053007,0.0051674365289139,0.0093400706823819,0.0035076994794486,-0.0030889354865487,-0.0037683757369185,-0.0048550960009054,-0.0080247160635819,-0.0066434612884112,0.0011901660093818,0.0086054059120453,0.0106379141853968,0.0047546755484293,-0.0048899632342145,0.002221988364458,0.0020152013682469,-0.002806530482236,-0.0112144435361412,-0.0091791722142727,-0.0012321066527488,-0.0015954571632396,0.0053153242611339,0.0141201207063817,0.0152898185644355,0.0090457439749635,-0.0049215744881149,-0.0197142463581091,-0.0223533799163548,-0.0029347099198619,0.0009253752237715,0.0094686668295728,0.0137205667747899,0.008487338906064,0.0077665604602384,0.006622291064949,0.0011274401373502,-0.0247037638786615,-0.0619418841451034,0.0255922318794997,0.0452382760791774,0.0224226942017692,-0.0057165996336083,-0.021238001489447,-0.0190687994588575,-0.0058258230954915,0.0087559260157518,0.0025640842153507,0.0148559333680069,0.0123354911946186,-0.0046923151372794,-0.0076512583973247,-0.0084660864786108,-0.0118551373697733,-0.0041209191512639,0.0032687170382996,0.0134772730454992,0.013945110198787,0.0029477250926005,-0.0102654084959751,-0.0067252675093429,0.0016197090053979,0.0007959811192263,-0.0061522048097785,-0.0004675611531434,-0.0016028543216458,-0.0032850738337928,0.0076625212980626,0.0115834408189974,0.0051371884271091,0.0007005910655837,-0.0156156354006747,-0.0215886433618448,0.0038906396586744,0.0177174150678075,0.0163513016566663,0.0044838594468642,-0.0074261581841085,-0.0050040799335063,-0.0196483120311637,-0.0391436661370604,0.0154858868076124,0.038109961694773,0.0292047516609566,0.0145496919724074,0.008031256795811,-0.0233263911095496,-0.0680167470317617,-0.0588619690056507,0.0347944536618801,0.0572340836837535,0.0379570131495618,0.0131362912121153,0.0074903154920436,-0.0094722968487584,-0.0371719195840898,-0.066766899169283,0.0080044650667409,0.0176257257500422,-0.005510425053275,0.0305092096067146,0.0545524522698173,0.0362706600536534,-0.0170238420025501,-0.0631110169082546,-0.0476088380623312,-0.0222021324820518,-0.0153792027660563,0.0614616265791947,0.0569486151508668,0.0350092910042853,0.0024414848734572,-0.0373377711829869,-0.0796190074148305,-0.0101233749221344,0.010419356155497,0.0051853042960999,0.0354382258184467,0.0550754341919465,0.0152303218369882,-0.0606481506480228,-0.0241056885497497,-0.0009323581770519,-0.0064581899552488,0.0016637521305416,0.024203679030483,0.021991300443577,-0.0036798064724268,-0.0216631669558477,-0.0081432103215236,0.0044478525722407,0.0138808927730093,-0.0076085796573227,-0.0074147831983209,-0.0051613915978076,0.0062313817591146,0.0407442126718422,-0.0070135020098837,-0.0368156451183799,-0.0420017274923053,0.0035361277757792,0.0536441412923557,0.0587474435889689,-0.0175183826892204,-0.0376418863336902,-0.0634935088108239,-0.0086409436655914,0.0729790473902139,0.0219281898660352,0.0033660484153042,-0.0458664527593435,0.0007592356774435,0.0102673249866442,-0.0309241397941461,-0.0041926461303567,0.0359576727158731,0.0463785160486291,0.0314651287257492,-0.0363536546736127,-0.1312224367911371,-0.0243501559520538,0.0816668262555451,0.0619231653824948,0.0426836599935373,-0.0081284475710618,-0.0516476983959155,-0.0315908926449514,-0.0478683403789037,0.0159474544304097,0.0631180382522045,0.0116488575258796,-0.0025616020372808,-0.0321974367641289,-0.0086920131612211,0.0380938018308617,-0.0056645728733212,-0.0293406604574747,0.0238910061050555,-0.0001087169207241,-0.0205711440393289,-0.0227152559392456,0.0218966618950738,0.0305701702426664,-0.0030543680048276,-0.0060128510086896,0.010419021176562,-0.0257051947677506,-0.0073068182030836,-0.0146313312980649,0.0098147483022554,0.0213050138720789,0.058701763818638,-0.0055139024588822,-0.0776422904302729,-0.0791357091579157,0.055995914145917,0.0555039683160826,0.033798916149168,0.0087682703118578,-0.01572725342783,-0.0354149579303073,-0.0296269560087552,-0.0062824814239598,-0.009344849132067,0.0161671835311698,0.0433783282928183,0.0125133406783218,-0.0186940294822804,-0.0054571145079984,0.0250453425464975,-0.012158047276242,0.0007381285880086,-0.0497274606175924,-0.0170560674087015,0.004595819604102,0.0265276150893568,0.0352499555541003,0.0324102113326491,-0.0327109128683736,0.0042642955513384,-0.0034996971898998,-0.0276329522417738,-0.0220807704212464,0.0116531889949488,0.0010180696785702,-0.0030244398259558,-0.0006874046750089,0.0439821261691056,0.0210854434021262,-0.0010345291789034,-0.0138671367825108,-0.0566376806184533,-0.0071843107645057,0.0251027620843949,0.001672095478501,-0.0287124651374578,0.0278363068726119,0.0364369457492546,0.0223543981082898,-0.0168075284899716,-0.0239448907802912,-0.0164422648515725,-0.0448440258402347,-0.0116486297208278,0.0623682120502041,0.0605802313378618,0.0091605608056599,-0.0615323686779307,-0.0660691481968712,0.0198859951016088,0.0469946664819229,0.0271186441338389,-0.0120596680783535,-0.0494470580131303,0.0115629817876206,0.0381789958662032,0.0141562531644754,-0.0402859680449419,-0.0437386138367192,0.0248538200918909,0.0271055737199957,0.014600348924955,0.0007563225092553,-0.010082453944224,-0.0099303158865013,-0.0023262727828824,-0.0052846322594311,5.174539291833314e-05,0.0115089680877688,0.0043529006065284,-0.0303808377590876,0.002358912150382,0.0322429027662703,0.0061256857800317,-0.0005267353707398,-0.0023646596095249,-0.0133538000242556,-0.0157275238680766,-0.0106536050021022,0.0020589512818585,0.0190616383847091,0.0167550283066039,-0.0019850068849496,0.0040634776894596,-0.0003408170173914,-0.0142937224527567,-0.0128129332674449,-0.0032600634354401,0.0048454226600465,0.0079808812664107,0.0068952757050481,-0.0036198490675124,0.0003347907618378,0.0064969718674012,0.0022496362823534,-0.003342609701227,-0.0098151433177821,-0.0049841761212735,-0.0008065255670686,0.0012832279859379,0.0044496105723944,0.0059704738483452,0.0034702782640251,-0.0032244962611359,0.0016943330713109,-0.0004001779603839,-0.0007566316563508,-0.0023021892386213,-0.0043548668037943,-0.0039488231245681,-0.0018941789225262,-0.0006420702110584,0.0055611005580108,0.0071147986055164,0.0063448916767805,0.0049507489750809,9.015389777838404e-05,-0.0078694178955231,-0.0105254271579124,-0.0112338884930077,-0.0043871282144814,0.0017849125118295,0.0098614627257666,0.0142056735260433,0.0124113688656463,0.0066387425507929,-0.0034636171224088,-0.0160108003876675,-0.0191493436658943,-0.0123015548492676,-9.727787711583028e-05,0.0095057127442598,0.0138359839841912,0.0154557428315895,0.0098081176087212,0.003111448091735,-0.008125731424682,-0.0168580395224264,-0.0178358812484091,-0.010666826600502,0.0027349314786976,0.0140722957862305,0.014950601021927,0.0131019546507048,0.0039089904383914,-0.0033774824323302,-0.0103451247057546,-0.0117865714919809,-0.0089187758951866,-0.0049618590855989,0.0027876180348007,0.0093668044940917,0.0109818296899945,0.0049032094414264,0.0017773400722323,-0.0019153925368139,-0.0048870413193609,-0.0038235051669965,-0.0059124855733982,-0.0037120906349202,-0.0024937928534418,0.001780099087782,0.0055267514675868,0.0074021182435728,0.0064776777135296,0.0004715820675407,-0.0020032306544401,-0.0035562694738175,-0.0095893737198049,-0.0076961670682719,0.0010404160852259,0.0051507229148346,0.0054006641100215,0.0060623921168438,0.0030831221562082,-0.0023131749382656,-0.0043116540889375,-0.0028590309856787,-0.0013205946490409,0.0017816104635747,-0.0014782576026478,-0.0030221205198541,0.0009027484918838,0.0017138071905396,0.0019464516169036,0.0024830036967998,0.0038917888608728,0.0023987789725536,-0.0015307918024617,-0.0057488056717613,-0.0075749655365861,-0.0054373000366989,3.644421575689031e-07,0.0060179537643553,0.0093293953185686,0.0080091023801299,0.0026435577950741,-0.0040149842052796,-0.0086316918073605,-0.0090823597150889,-0.0054096166992637,0.0004516479064806,0.0058033197324225,0.0084369850971072,0.0074443730116086,0.0034066506398883,-0.0019404204117877,-0.006390161890669,-0.0081065731446235,-0.0063688464365786,-0.0019123176990914,0.0033429303921738,0.0071147771059136,0.0077743630580618,0.0050666600655636,0.0001880560495963,-0.0047937550199397,-0.0053901543289883,-0.0080821203204768,-0.0057007225742211,0.0003895849138641,0.0059168207664165,0.0097880505741446,0.0063904601594692,0.00118376972028,-0.002465663217253,-0.0055869764562858,-0.0046335563646426,-0.0039109970957322,-0.0013369811091928,-0.0003163439322856,9.089233929968108e-05,0.0012305424230178,0.0073125850680557,0.0084330986866993,0.0031928983212576,-0.002300992164015,-0.0064922794779268,-0.0055220183289429,-0.0062903826024594,-0.0041606187658226,-0.0005546464872146,0.0027847140146243,0.0070217761148193,0.0087549402479664,0.0077311981473575,0.0019505314203203,-0.0052376215187215,-0.0071046326039984,-0.0069196319222701,-0.0080934613816348,-0.0058786090819307,,,,
0.0062269943792894,0.0053314556327939,0.0003052262089303,-0.0008912362251473,-0.0036022177999345,-0.0026539785913317,-0.003867236658012,-0.0025728205621734,0.001834722095579,0.002305598020206,0.007252208508934,0.0045247552244345,-0.0015658729010681,-0.0063313366383743,-0.0030724095138627,-0.0011284980721714,0.0007945188317728,0.0008746871050243,0.0019544534042708,-0.0012340649130048,0.0018313923099508,1.3140103270888228e-05,-0.0008402769930233,-0.0012434040226798,0.0003341171218405,0.0028601642119423,0.0033761346983607,2.4568614399487896e-05,-0.0038084621326252,-0.0044551596732934,-0.0035396391099701,-0.0004734691707315,0.0016412907010493,0.0039389873442496,0.004706772907564,0.0051445968454126,0.0005229520969512,-0.0028169900299143,-0.004738227221346,-0.0056966413236136,-0.0050226652209385,-0.0013479143981494,0.0027038917563164,0.0093655715784131,0.0075650782063778,0.0021408350624598,-0.0050914818008338,-0.0044814789108754,-0.0035811353949156,-0.0037080095928165,-0.0032893439986644,0.0031052447589576,0.00583237721484,0.0058791291123861,0.0026368318500816,-0.0004167958882837,-0.0088992626426928,-0.0067072671293653,0.0001496729311381,0.00151741387196,0.0060845377944108,0.0053780472197683,0.0034590965986189,-0.0017380436748125,-0.0045649879379721,-0.0068807999740734,-0.0061823303465179,-0.0004743037345649,0.0074656675876167,0.0071765566864995,0.0033950622401319,0.0014248971685772,-0.0028509531426446,-0.0036685975010954,-0.0052524442422675,-0.0026000525132891,-0.001404509407333,-0.0006107571265897,0.0056497983180874,0.0071215782768839,0.0036812997660007,0.0011045151648414,-0.0040199158872537,-0.0102905239049781,-0.0070479705224306,0.001069048075034,0.0062000071603537,0.0095483809220093,0.0045914248862772,0.0021453441748264,-0.0059510241831396,-0.0123462984413806,-0.0067337106091878,0.0071506883922356,0.0029066243923709,0.0003092871867111,0.0046443669758892,0.007237674966833,0.0048448489233227,-0.0034868333040036,-0.0154448841333678,-0.007916350195712,-0.0001133562225302,0.0012311538119764,0.0074265821622305,0.016898078695367,0.0074311837158908,-0.0043741193618093,-0.0155285898132642,-0.0138342506472687,-0.0027694774396298,0.0044188108585502,0.0067043288319001,0.0106323709336936,0.0080457187309234,0.003381515941174,-0.0067479923122526,-0.0033202137677061,-0.0087611602396169,-0.0199518377020469,-0.0083914746878732,0.0118280212722918,0.0214336858363553,0.0211404059674756,0.0061422626891335,-0.0043636157277977,-0.0131243742125704,-0.0167976102390465,-0.0209416213384128,-0.0373626191357825,0.0351888900468548,0.0471211498866852,0.0258029604568791,-0.0190633451892056,-0.0314304406683119,0.0033898942751388,-0.0120427607387292,0.0283024948554111,0.0014339153201549,-0.0235999925443232,-0.0369799907429238,0.0009549257972839,0.0410811674385744,0.0279475711262704,0.0165159008709802,0.0055459232775974,-0.0229349617976665,-0.0656075196357764,0.0026430140120229,0.025736406083309,0.0070138510826815,-0.0193347536886535,0.016319312359381,0.0238694463900837,0.0310067650537498,-0.0058239597731395,-0.0342542806443089,0.0011322919877804,-0.023141589141984,-0.0607002472377143,0.00594639238958,0.07430757979419,0.04909910689335,0.0215171586056121,-0.0147944452191391,-0.0631203084529725,-0.0491709248700728,-0.0097322070719542,0.0277792682358954,0.0447750805752656,-0.0018779647170565,0.0290451630144884,0.0130080276392012,-0.0577101107871837,-0.0164376313569801,0.0235175813973766,-0.0038394538537922,-0.0101680157377392,-0.0101363863543274,0.0228296510280748,0.0036687661756403,0.0260004605934164,-0.0085652113453853,-0.0086367757245864,-0.0017970917220798,-0.02816393496418,-0.0161465358928209,0.017370660452367,0.0032212357877623,0.026297697623816,0.0382061515470821,-0.002550014141118,-0.0565763224544345,-0.0454382762884569,0.0143882797718211,0.0546471396651705,0.023082350881241,-0.0426132944337715,0.0039556007553668,-0.0057227664328635,-0.0074132902063735,0.0238780007119281,0.0151197132512155,0.0050485852320429,-0.0462899248747365,-0.0315403225020339,0.0381230311095701,0.0233165962071427,-0.0136137158616891,0.0134668026299449,-0.0055213831423685,-0.0069085900486644,-0.0122017748328272,0.0247282754599543,0.0171299388071996,-0.0311567500350824,-0.0214746367431233,-0.0085125377781786,0.0078996161829026,0.0038105418688371,0.0267160155327709,0.0257480386629755,0.0180101422413732,-0.0037684975019154,-0.0381787775236077,-0.0596842449085298,-0.011043333121641,0.0058458763109236,0.030716795469655,0.0517016990109084,0.0390604027644002,0.0045049287980735,-0.0418941835708029,-0.0607566437820181,-0.0111619839042668,0.0161445517153954,-0.0018296161712751,0.0120669686689501,0.0222165106450354,0.0194910777844436,0.0107726820964332,-0.0017469504986246,-0.0247571080760523,-0.0201840261001522,-0.0231540683714718,0.0099526442490061,-0.0026043029591762,0.0159412079244117,0.0398893200037789,0.0173143404492396,-0.0268796349984525,-0.0287256856862891,-0.0206568539091363,0.0254819438053307,0.0091903495121644,-0.0172351400797335,0.0049802876668599,0.0108863181492826,0.0086833398117492,-0.0132244376642866,0.0139258645136534,0.0073248469098799,-0.0113610885277324,-0.0253799070239424,-0.0317015035046382,0.0254041500147456,0.0323443028868477,0.0241998262489773,0.0085902520719775,-0.017563228847865,-0.0582793380842733,-0.004545729740081,0.0293573875076996,0.0270315766944876,-0.0226108986133478,-0.0085280222671013,0.0190635605995238,0.0107905816432683,-0.0044226031961779,0.0021520324379974,-0.0026714028083342,-0.0315051936317066,-0.0229402700510154,0.0125461774085737,0.0411779667922509,0.0232351210752695,-0.0093574878878401,-0.0215276740830446,0.0039947610300557,0.000499484359008,-0.0252495995475367,-0.0256141281712668,0.0070411956005247,0.0424190715819901,0.0343139768128777,-0.0012463399358026,-0.0253217125512572,-0.0328485520335583,0.0097196197835588,0.0022505507309893,-0.0129473390980765,-0.002371470218495,0.0140063192960005,0.0248199298510689,0.0038804532911107,-0.0050964553969374,0.0005862957569142,-0.0026671669623111,-0.0251112435053087,-0.0250071184000317,0.0084744833593032,0.0126186049420642,0.0199068878933937,0.0205220567710145,0.0141169535075231,-0.0174040664958438,-0.0327340326163997,-0.0007418290485007,-0.0046482497012934,-0.0032895715706776,0.0003812190191188,0.0195968518500454,0.0183787183760234,0.0060930204789686,-0.0180544021990693,-0.0138944100696796,-0.0006358043623386,0.0139978245574533,0.006040575902161,-0.0118660040714169,-0.0186524712134258,-0.0238868755942829,0.0331435248744371,0.0320581741910729,0.0112156606891171,-0.0157196996618752,-0.022354658923144,-0.0037291766185201,0.0144236981673508,-0.0016985314128172,-0.0416355944877636,-0.0170019722504398,0.049427869551759,0.0411138576934215,0.0092976967829233,-0.0146355668650055,-0.0280525010215743,-0.0246465766618236,-0.0123336705533586,0.0051546732741053,0.0156620111386173,0.0142332074805345,0.0157115133304531,0.0103207431353611,-0.0093365757694523,-0.0140456351878702,-0.0132874074152791,-0.0020689373535488,-0.0028617032822824,0.0014102325387583,0.0099118310899519,0.0073547787961964,-0.0009399272196462,-0.0006060374641312,0.0047055013504094,0.0027668449884867,-0.0064288600565881,-0.009549690301995,-0.0022164922335201,-0.0006537129642522,-0.0002328089340229,0.0057505047269609,0.0057348145836697,0.0020865644169532,-0.0030307498919513,0.0038882224729192,0.0027270476801568,-0.0060595825352467,-0.007342606053515,-0.0079560509819537,0.0006723196536649,0.0074745378707955,0.0094517374858644,0.0055642787830091,-0.0010985915793422,-0.0029940647108033,-0.0067662530475526,-0.0073535552401198,-0.00389183776905,0.0001621314181787,0.0076837185085347,0.008957727318515,0.0073443460918435,-0.0002557427722978,-0.0052104686386369,-0.0079858475123524,-0.0086642829945573,-0.0035532810010824,0.0019138124544646,0.0051761310626796,0.0076930418348607,0.0071677612981429,0.0015031740651174,0.003170763269279,-0.0055497740304372,-0.0090962062950009,-0.009006974278314,-0.0067926837476919,0.0012505129462265,0.009270026642233,0.0103717015775876,0.0092589532196974,0.0027821630562534,-0.0041911279725131,-0.0070150604541086,-0.0121975975540251,-0.0076628969048443,0.0004287363181219,0.0059810282919695,0.0105278032749816,0.0066249230057852,0.0020128616528819,-0.0022045905035319,-0.0054327952503552,-0.0071580839348553,-0.0028861792297312,0.0021640088040055,0.0022821934134256,0.0021027471985572,0.0014751030354741,0.0007523253559103,0.0008185113812429,-0.000519676078854,-0.0034041496241909,0.0010420421428317,-0.0003712362473236,0.0014723609208484,0.0016028160849264,-0.0019732710991307,-0.0034957463817919,-0.0022971357982853,0.0018734384803162,0.0040831873884818,0.0041404574011475,-0.0007044009672059,-0.0005394201107655,-0.0021441339155638,-0.0026359490051708,-0.001643144772803,-0.0022429801700513,0.0019686799865128,0.0025405158900019,0.0008680552403034,0.001757611049902,0.0006217702901342,0.0012439807430146,4.873235405475205e-05,-0.0017260890148391,-0.0036277511043625,-0.0036135705134899,-0.0028011597652625,9.743400082950333e-05,0.0063555520396719,0.0080384483907518,0.0031285509762178,-2.7868010478712853e-05,-0.0045057010133067,-0.008836192909431,-0.0075566480891174,-0.0014629682692788,0.0047889193500757,0.0086360095120034,0.0083422174516525,0.003999054941215,-0.0023502807439015,-0.0076451709432837,-0.0093364811103244,-0.0066777063087538,-0.0010829004973219,0.0071119070567305,0.0100642127872366,0.0088169498591147,0.0015271820181784,-0.0043410926710696,-0.0082818722075965,-0.0083473638336383,-0.0046706089211952,0.000688689344716,0.0049319342239088,0.0084905375337362,0.0059366630185929,0.0033553491456194,-0.0020112430146858,-0.0058191778274999,-0.0044043319971491,-0.0051344442175334,-0.003682032474682,0.0009570334924344,0.0024693479650943,0.0046485359367888,0.0043230245734934,0.0065379308134029,0.0049477663636766,-0.0016759974668033,-0.0094561283988375,-0.0102434854908548,-0.0062256906957637,-0.0030249992896758,0.0052991952804347,0.0070688486068676,0.0129682983139573,0.0080418153561778,0.0007871713571295,-0.0063188985019552,-0.0105213295292176,-0.012654353052602,-0.0080496619699451,,,
-0.0002946174160884,-0.0029001559775804,-0.0054358660605838,-0.0042220506239441,-0.001439895427691,0.0001210496398576,0.0042288556654095,0.0051305312255809,0.0048284962492706,0.001205334815871,-0.0001820756608328,-0.0033204239507787,-0.0054428961912288,-0.0039724937281153,-0.0041829262363364,-0.0017409852380612,0.0029730124860247,0.0072989381478847,0.0056027372382089,0.0072559044498253,0.0020095259404614,-0.0043798809391248,-0.0104146891896059,-0.0088301185334545,-0.0057228450486082,0.0008645581286889,0.0057635601119708,0.0103804863164432,0.0096707675463463,0.0061861603642105,-0.0022953345206631,-0.0116599665794899,-0.0135359370571927,-0.006952869153362,0.0011633083148855,0.0069081956058979,0.0113582143900084,0.0100347521811134,0.0037845812413124,-0.0042881671560036,-0.0103999017789942,-0.0118440131792614,-0.0056364707821395,0.0013711319145989,0.0083857033527986,0.0096763839985854,0.0085288299342147,0.0029761301608548,-0.0045237279090121,-0.008259279287595,-0.0107049334072372,-0.0061649220990336,-0.0005833350724837,0.0059788475111184,0.0108255947980741,0.0071878223736207,0.0045398521532825,-0.0006510819580493,-0.0059027661978842,-0.0087525742612957,-0.007930884012584,-0.0040007898928099,0.0009115725187408,0.0067198838688041,0.0091087744804953,0.0057422848873738,0.0005779629336449,-0.0016039115505756,-0.0016539537168645,-0.0040575393389315,-0.0055269060137643,-0.0030880595465421,-0.0058211712318926,-0.0016956184303793,0.0107549270332858,0.0110976302022482,0.0053652668366057,-0.0041888133790369,-0.0108322101652918,-0.0002336941365721,0.0039818534912425,0.0027693513922535,-0.0033209641189448,-0.0070137396419859,-0.0087390569548687,0.0028209508025249,0.0046174893581749,0.0090945512340115,0.0095522998040964,0.0076430542348274,-0.0027170722354928,-0.0115099545746093,-0.0128358650868571,-0.0062745451058437,-0.0015178253136266,0.0015570522324067,0.0063089584912755,0.009258832075921,0.0086827858435232,0.0001389521262026,0.0031139536607308,0.0014074610966871,-0.0048023592879686,-0.0113807140505903,-0.0133053493880697,-0.0114185774327575,0.0003988409400037,0.0128924575730759,0.0165303800238332,0.0169864443137912,0.0086408786191818,-0.0024364714591031,-0.0160400090339414,-0.0192005691060704,-0.0145926767209148,-0.0049725534812009,0.0066025443035559,0.0104760336851918,0.0165732155973573,0.0135607296305481,0.0056800038231937,-0.0097334207184909,-0.0095903851095643,-0.0087856509652731,-0.0063788789038151,-0.0050198504002735,0.0003121280483861,0.002014715981224,0.0046664887144533,0.0084006878278406,0.0105383742083836,0.0094946482921609,0.0006127809142298,-0.0120719386972028,-0.0179465551610383,-0.0119807705502474,0.002391140438578,0.0101122517901258,0.007720642440052,-0.0002703571248942,-0.0182390818032345,0.037073903286928,0.0316405604786006,-0.0293446456436609,-0.04388848990879,-0.0075786506849902,0.0135888094476462,-0.0013603744316595,0.027649897815838,0.0138963165027687,-0.0014720998020118,-0.015936011732342,-0.021615343437821,-0.0012525123643055,0.0124995609133986,0.0056578030695953,0.0059389774537927,0.0042171053630955,-0.0035275506293111,-0.0070871187311618,-0.0051986007590231,-0.005210798722597,-0.0039648278493673,0.0068352500628613,0.0089247603422771,0.0071746841714162,0.004913275218818,-0.0012301837012695,-0.0076173783577652,-0.0088218331292714,-0.0099648577290937,-0.0019048607302991,0.0077363081806757,0.0088716643499243,0.0039601571881142,8.156873262442315e-05,-0.0001556527298299,0.0012988511905577,8.0922836253321e-05,-0.0032456111529814,-0.0033415237976078,-0.0074312736875496,-0.0036617068483922,0.0029568806115925,0.0045112622748999,0.0051822537606964,0.0042989031541982,0.0016219028507362,-3.274254279649584e-05,0.0003946161111252,-0.0034483309775437,-0.0084292518976185,-0.0049105896168156,0.0020186133566903,0.0013991072558519,-0.0030312074815577,0.0077276286262595,0.0092679506244488,0.0048479590992508,-0.0022858658125813,-0.0091891576835354,-0.0055706340837729,-0.0055921132775251,0.0033907937949587,0.004323816160199,0.0039829048312504,-0.0012893947035835,-0.0033178170604877,0.0043016769151185,-0.0007244702455591,-0.0008036991872486,0.0025047563343312,-0.0014022014955417,0.0012928397426787,0.0016363499127415,-0.0049691097379761,-0.0019886611266022,-0.0077938523297834,-0.0014782055638248,0.0060446647483348,0.0166661844514034,0.0046327625311168,-0.0068657588803892,-0.0035443608753679,-0.0128570528690805,-0.009046551268929,0.0151298766224851,0.0071392884016035,-0.0010884063507167,-0.0058400489852865,-0.0026109121054513,0.001373174120271,-0.0014351000193208,0.0088822821441227,0.0057669607343743,-0.0020361296149005,-0.0040387278341972,-0.0059903524686235,-0.0159425484718957,0.0034266327292601,0.0084396308757066,0.0045186581234271,0.0129186941008114,0.0119076051799945,-0.0051699043211889,-0.0182669419333738,-0.0248572473157423,-0.0051790472282193,0.0217133565941067,0.0187083725295147,0.0038910845860057,0.0049544034522797,-0.0116355228185647,-0.0116940373853499,-0.0057361785168474,-0.004754871134231,0.0042213605216092,0.0093226727473846,0.0058439005149119,0.0036662833176275,-0.0023628915878468,0.000903148112448,4.4655084649479035e-05,-0.0099501318405583,-0.0066999536064705,-0.0020558511058541,-0.0015494466684607,0.0066768887258165,0.01502844500498,0.0105974848596119,-0.0089272864262812,-0.0075454277838825,-1.0070595674692852e-05,-0.0132821229907263,-0.0064257767413778,0.0051261719617277,0.0135277389642676,0.0081776919448716,0.0083899862179948,-0.0148606726014784,-0.0186497174882551,0.0080345205579693,0.0105865220134704,0.0028076875799623,-0.001085769892989,-0.0058287892587755,-0.0013350117407058,-0.0015699520743705,-0.0114916960121729,0.0097083454003521,0.0190753999767781,0.0074058822792681,-0.014200310912881,-0.0301051691428603,0.0065832656858642,0.0185854405367069,0.0143927923986992,-0.0016375014548949,-0.0204155206555692,-0.0065077905919425,0.0046632225319666,0.0075200041513929,0.0053811393959646,0.0011598828382728,-0.007144213633869,-0.0075556451242301,0.0089220470688708,0.0060574103000472,0.000472257208652,-0.0057104979775578,-0.0072192123581531,-0.0015421451258938,-0.0052106000817646,0.0044016047544303,0.0150166017171843,0.0103880943095151,-0.0024262693237127,-0.0109453444428273,-0.0138099679492508,-0.0050165961108069,0.0043608806702741,0.0081454692015173,0.0050514746545947,0.0036266637786369,0.0014513262084723,-0.0001333158214542,-0.0065491633576513,-0.0037117365743668,-0.0032934494565187,-0.0009319789870633,0.0014173740593465,0.0016827161929516,0.0039691107448617,0.0085687135612148,0.0024564427640782,-0.0027097821170107,-0.0106326472601995,-0.0084137821834904,-0.0008404408110735,0.0042174052412648,0.0050292408049545,0.0042152918590947,0.0075454651166399,0.0047800894242745,-0.0056300275934534,-0.0121076850337915,-0.0074256408642142,-4.219207411980303e-05,0.0005814046660962,0.005687562419468,0.0087660247120825,0.0059164244509709,0.0010781436635995,-0.0058338136231971,-0.0048739347594023,-0.0052817532400265,-0.0012090532764396,0.0007868546393195,-0.0013857293319826,-0.0002243098619118,0.0065990253875521,0.0069832583560889,0.0030869961038029,-0.0007398815663549,-0.0050792546678835,-0.0076207041380123,-0.0056012681812359,-0.0003942571364447,0.0038225634106148,0.0042834686386093,0.0049666600218978,0.0042668667470411,-0.0008809400209498,-0.0027415685984676,-0.0047786565966336,-0.0054588563463124,-0.0016545444508801,0.0009590815005588,0.0057666577910027,0.0065970233474157,0.0030618145894087,-0.0017437627753085,-0.0061417686091389,-0.0065669341015592,-0.0027510449706159,-0.0004425559927198,0.0036377490889471,0.0081334225938012,0.008078594803373,0.0023751159235883,-0.0048227890472962,-0.0093992655578975,-0.0082350602069939,-0.0046482276765269,-0.0002444875699933,0.0075617244145079,0.0100388635668788,0.0091758991426765,0.0033245083402637,-0.0036390318483494,-0.0072813936676004,-0.0110748708813515,-0.007359836361629,-0.0040810704059027,0.0043223875811257,0.008428336609484,0.0088705925982313,0.0102250654905869,0.0039344113414791,-0.0029654348673058,-0.0101121405365094,-0.013063493800151,-0.0085753612825348,-0.0024372777504195,0.0057570117412938,0.0083711574375028,0.010293106670242,0.0104495482175859,0.0018984879133258,-0.0061397389139723,-0.0089188757808752,-0.0090763568824994,-0.0060827645817575,-0.0031912475910739,0.0023999143425512,0.0084665075066707,0.0089930854418834,0.0068374720881841,0.0037054495032881,-0.0034323873192052,-0.007866104528751,-0.0091097819936629,-0.0052300330307319,0.000168035284243,0.0030466907896779,0.0045448027093814,0.0034967019621147,0.0023910900576554,0.002101628284499,0.0041009833845065,0.0001565029425237,-0.0062855055391655,-0.0057329614978818,-0.0037181977579919,-0.0040144717794008,0.0022058253014008,0.0044393406748061,0.0026340319033785,0.0046415106502342,0.0034667483120127,0.0020010761834513,-0.0020434747060279,-0.003410769534227,-0.0040776947589654,-0.0057776943015126,-0.0033534820698531,0.0003751578157534,0.0040619356249999,0.0033555066970932,0.0043612549934296,0.0068684661320835,0.0026804518573269,-0.0034574254587571,-0.0072008897673821,-0.007610966705542,-0.0024347005672085,-0.0003621550530798,0.0020876996638396,0.0057677088172227,0.0050163322888001,0.0019843880346554,-0.0001724123596037,-0.000310034568075,-0.0020640728970235,-0.0044107796705393,-0.0045243098140147,-0.0032870262364708,0.0030905404183221,0.0057058107913987,0.0061354899619492,0.0018239394825525,-0.0037786414130303,-0.0045670110422846,-0.0039169987600612,-0.001451709130627,3.5813586427386934e-05,0.0041159330075512,0.0066438760090698,0.0018501375925041,-0.0030513360644816,-0.0017458073676029,-0.0015348385007249,-0.0027273191322991,-0.0021829556983985,-0.0033846046950234,0.0008446952549843,0.0053941160328339,0.0063252699166071,0.0037073090600799,0.001434643239947,-0.003128622437201,-0.0057292933176484,-0.0079371718322252,-0.002884351818438,-0.0013108928856726,0.0050098726982715,0.0077790965927445,0.00394322104045,0.00339898303078,-0.0004280540846144,-0.0041259823221611,-0.0040086445272283,-0.0043620234543098,-0.0029775804696264,-0.0009604863642237,0.0028499809195311,,,,
0.0003228853895512,0.0002968083171589,-0.000384857871871,-0.0021509669330398,-0.0026418346349355,0.000808585961474,0.0017712965068179,0.0009568367454406,-0.0009927805268143,-0.0014571032388833,-0.0004435229823258,-0.0005330076941392,0.0002068058303162,0.0014167325067719,-0.0001906480334472,0.0021520646577375,0.0032092965843484,0.0006840908121301,-9.192191614661928e-05,-0.003230027464127,-0.0054201330840837,-0.0065636690927603,-0.0018089694574106,0.0054908824039157,0.0069139693410532,0.0062079500855227,0.0051714502743205,-0.0005555635349412,-0.0045493946955767,-0.0072655582948904,-0.0066614550273654,-0.0042748679051053,-0.0008504530665371,0.0037849912123946,0.0042357474217738,0.0079759119887026,0.0095233578835542,0.0027455983581489,-0.0023837617521724,-0.0076561081030047,-0.0133203217562775,-0.0092872688952018,-0.0016462860433389,0.0045128301353041,0.0088288395462095,0.0114238555987172,0.009375392926147,0.0014685407880005,-0.0022996065753636,-0.0093014428969783,-0.0103805632408215,-0.0103293274452087,-0.0032200860533112,0.0017763140575895,0.0076937811223101,0.01079730595086,0.0111566229255942,0.0069464624567294,-0.0004761540176148,-0.0094194143887736,-0.0134508122292777,-0.0115529958398921,-0.0059486205430414,0.0021190930150062,0.0075223229996622,0.012098437005335,0.0110698337264369,0.0091830059127696,-0.0011058877467426,-0.0086079626544224,-0.0122068379272245,-0.0121724931877152,-0.009021873842667,-0.0006542164377047,0.0093859634085767,0.0159008081410204,0.0124990321720457,0.0072414218087962,-0.0027343939295951,-0.0099393536951307,-0.0144124565788295,-0.0125033796090841,-0.0043164459355953,0.0036407470870771,0.0117099494863767,0.0125491591334374,0.0074251285061691,0.0034549991771968,-0.0025273693078931,-0.0078720890908866,-0.0126028180418174,-0.0105926528879056,-0.0026414903190807,0.0038267290033685,0.0107736490665139,0.0137472285854407,0.0100828252054999,-0.0011160505810147,-0.0101894174015617,-0.0118283467114246,-0.0095511459910084,-0.0035311831878965,-0.000738786904344,0.0102817386029857,0.0151018767242694,0.0108449729900543,0.0019186369408473,-0.0082643197840493,-0.013610775968445,-0.0146157680730296,-0.0073767611062271,0.0021729590371387,0.0117687748035822,0.0172940972437261,0.0147065905573637,0.0028363634929619,-0.0070773250329069,-0.0154759409872557,-0.018571265655418,-0.0101372742814184,-0.0018479022180917,0.0100487306183109,0.0165069215720286,0.0200637164575707,0.0110864774804677,-0.0029908744768876,-0.0131989149531578,-0.0184717457601173,-0.0168191716706637,-0.0093306152746379,0.0033866391097766,0.0145906523691988,0.0181870654687878,0.0171295503979068,0.0071217992607347,-0.0064424456203575,-0.0148578741877762,-0.0166713911957332,-0.010037517554322,-0.0061541824942563,0.005208398568076,0.0081972362815383,0.002398417564951,0.0155816684047997,0.0291448210120791,0.007495232221682,-0.0214174629080437,-0.0484182392030115,-0.0069263817606019,0.0021830443324221,0.0152794585001773,0.0152680178854964,0.0128956553879013,0.0070092732596834,0.0002343220703946,-0.0036123885726991,-0.009643116462191,-0.0161352116859365,-0.0140744518315224,0.0010425226727901,0.010166671726388,0.0095212285110334,0.013176456146049,0.0103195939196163,0.0015933084348013,-0.0040559920818739,-0.0145931474930397,-0.0306959516968507,-0.0225787121661253,0.0308449234740916,0.0357178521912026,0.0221594432810636,-0.0041731953703851,-0.0363834517837182,-0.025185828289907,0.0051095333105459,0.0184669986505168,0.0079248980138888,-0.0126280669918315,0.0081308621777696,0.0131090603181897,0.0051979749495026,-0.0136567061705474,-0.0088704878303203,-0.0117132278188303,0.0102572528855743,0.0003884183851792,-0.0081366821369103,0.0171455988815793,0.0012238912058821,0.0075092994305085,0.0042629128881129,-0.0203366763018104,-0.0073714938795525,0.0162627506990215,0.0003418292474019,-0.0256954590602354,-0.0062661109783988,0.0184472868233573,0.0275401910876905,0.0016153221657132,-0.0112448010124943,-0.0017148589407381,-0.0123322038051366,-0.0135265562370364,0.0147135019639759,-0.0030472499197916,-0.0049619912174134,-0.0027837944020141,0.0143016965099455,0.0089724887009734,0.0163043848900213,0.0015959435435238,-0.0212523857577801,-0.0376042856565529,-0.0002854267627174,0.0234600687878703,0.0069542779686879,0.0110333038710203,-0.0006516847785622,0.0035877141853074,-0.0018894718865335,-0.0282584028145385,0.0169655878705064,0.0089193386547633,-0.0154069947161946,-0.0010303139669756,0.0060711374491687,-0.0011413245422739,0.0087720818494921,-0.0158337774639792,-0.0031016711209889,0.0226592437651504,0.0124719066385838,-0.0043367681769267,-0.015263915678686,-0.0192390505846433,-0.0026908387647048,0.0058207391664619,0.0008445707871982,0.0097998887019548,0.0247705940164908,0.0117725948124084,-0.0130384309245712,-0.0440590295718198,-0.0053732809428864,0.0208522020363868,0.0095457511551187,0.0099358791657609,-0.0008246880635086,-0.0198124039311217,-0.0071965294361768,0.0092836945633181,0.0296583324468051,0.0080978632799651,-0.0253597134067315,-0.0249527311603833,-0.000482462549428,-0.0105522348736352,0.0137662584620827,0.0348122060950942,0.0160651569494981,-0.0026564561060869,-0.0233577966322023,-0.0103809602558926,-0.0246817004919762,-0.005915486227034,0.0164949903795016,0.0113439232926232,0.0043648618655791,0.0262139862872714,0.012434476469449,-0.0107844242569742,-0.027362581780607,-0.027032096243606,-0.0011490162641689,0.0069291812148205,0.0143615526737305,-0.0011874554157277,0.0164483026802856,0.0204451885906649,0.0033399079956201,-0.0280694386009696,-0.0060216430920994,0.0027485604319666,-0.0085191659880676,-0.0181758795977774,-0.0167277360274705,0.0199471397130246,0.034869545025443,0.0308612133732944,0.0107427188511996,-0.0206338565504658,-0.0415817082786419,-0.0391289916528287,0.0010691093248701,0.0179038427451328,0.0312618149987558,0.0269213693164767,0.0083200796816286,-0.0185361251596387,-0.0238149469493935,-0.0043102457474199,-0.0063528065344008,-0.0101230092024088,0.0213522751410889,0.0153428342513065,0.0019399992932808,0.0003704598119673,-0.0074223822897184,-0.012799269535855,-0.0101448025344998,-0.000991420183043,0.0079720245860178,0.0192543789834474,0.0125097179850523,-0.0064164060371334,-0.0115507990003502,-0.0072624331244918,-0.0027627624705724,-0.0044294383345512,-0.0018010202218733,0.0030477134345567,0.0009569392652651,0.0009356006575243,0.019439415188966,0.0155803304343645,-0.0017355109699882,-0.0134567413553025,-0.0210291371352102,-0.01668357125163,-0.0044218144258758,0.008751901256468,0.0143644332355528,0.0128450513278072,0.0145500963138898,0.006748267775282,-0.0049955687416012,-0.0111277352874042,-0.0175108021380887,-0.0211374721874963,-0.0052525603321834,0.0129206083269281,0.0178261399321503,0.0128548385513255,0.0060141636816675,0.0036718310954187,-0.0060566807572925,-0.0116966002516523,-0.0105917529807311,-0.0057839655891484,-0.0014607703619383,0.0031341691280775,0.0075154357654401,0.0063535225324788,0.0056679736014953,0.0040710681216939,-0.0029018179622265,-0.0074756598639695,-0.0059606520373517,-0.0040352309849861,0.0027374982503105,0.0042407872412887,0.0041184770390765,0.0007585493902546,-0.0007220712581336,-0.0050065467157495,-0.0031677860992647,-0.000787395205502,0.0020962873307443,0.0053768457741922,0.0073704192829468,0.0006977312030187,-0.0004133091274527,-0.0056364811820227,-0.0103762165221399,-0.0068492830357946,-0.0008064227813735,0.0054913047196428,0.0100423717619672,0.009162235400323,0.0051783576312711,-0.0032683190543943,-0.0072151589542875,-0.0070222232280866,-0.0061256000226867,-0.0018126710819356,0.0003695172633418,0.003313609525337,0.0051676423867778,0.006749450266201,0.0052607803238042,-0.0011004798194789,-0.0059150650712062,-0.0051918619099692,-0.0026693990965973,-0.0004628162402077,0.0007460315481124,9.930928778585607e-06,0.0016331727074711,0.0029079048238954,0.0014243654657728,-0.0007344158333017,0.001083063621893,-0.0009184182136363,0.0009766734537424,0.0004309929435202,-0.0010573947478919,-0.0049977415102817,-0.0039536769970304,0.0010114856350315,0.0034252856123491,0.0043770900347763,0.0029600978839058,-0.0001026439520908,-0.0009848864447789,-0.0028038695660995,-0.0024203320596577,-0.0026512057025391,-0.0001532179844409,0.0032855283969419,0.004323689155218,0.0007432176077864,-0.001514509354297,-0.0032902647419209,-0.0033331806823792,-0.0013234536265223,0.0018970635779252,0.0021275196319985,0.005086175196569,0.0047152649891546,0.0015251393891703,-0.002686249636998,-0.0081963319551246,-0.0105106701995394,-0.0038917508455818,0.0035119405004378,0.0072164519924068,0.0091661275387123,0.0099085881703458,0.0041338901009701,-0.0045150707410811,-0.0109616410488779,-0.0102154561256138,-0.0104406034184784,-0.0018188139878998,0.0066729547824034,0.0101852288297859,0.0110245362488928,0.0077539256614158,0.0010199578831572,-0.0048500210165524,-0.0095836035710535,-0.0086949556320374,-0.0064677036963748,-0.0042369524236764,0.0026079102749992,0.0067179144267014,0.0112825130358389,0.0094049335537226,0.0054955254530634,-0.0049226782438195,-0.009208990307527,-0.0107105862154527,-0.0074026671555629,-0.0036646861828253,0.0047657706788048,0.0103150127050403,0.0117587811296411,0.0048523314202539,-0.0038038046173679,-0.0068421706421795,-0.0073115767036228,-0.00461730747506,-0.0020672994021882,0.0036260161915891,0.0057283294328747,0.0053459871999469,0.0020203233590671,0.0015006422644139,-0.0048830181573776,-0.0057235381775853,-0.0052122212768981,-0.0006674038193973,0.0022154027080868,0.0074030891155387,0.0043211639673098,0.0001234966386685,0.0007190463110282,-0.0026461890254996,-0.0039956386431399,-0.0060146092768966,-0.0023067470610121,0.0032337694929769,0.0022225568180892,0.0037446794991848,0.0034784897047826,0.0023366918932704,-0.0006173648090901,-0.0019033306481241,-0.0035051936730398,-0.0058810864240373,-0.0025286493579537,0.0006491665742684,0.0052827829650982,0.0037603502180103,0.0032403218949315,-0.0007546634385834,-0.0003937156370321,-0.0021086890025474,-0.0028416677306149,-0.0022412627367031,-0.0003690791861419,-0.0001417877417561,0.0023611090237533,0.0037603372657422,0.000819019405145,-0.0016178728236613,-0.0005391115866655,-0.0021808241325813
-0.0068603714155717,-0.0097578850991761,-0.0098136311264198,-0.0094906204634055,-0.0014647111785628,0.0081218533563017,0.0133786934625674,0.008060868218548,0.000131134490689,-0.000276107720721,-0.0062811264232423,-0.0077107173431798,-0.0058263564203594,-0.0045062885947549,0.0005719999495823,0.0060383614289685,0.0099365690053341,0.0075482255494123,0.0006952921627038,-0.0032800238754928,-0.0071410080008581,-0.0054447686613587,-0.0039904651761294,-0.0019930459971746,0.0011453632854007,0.0046522859365345,0.0065169767112523,0.0049972911800041,0.003383674160764,-0.002839140610319,-0.0062935203850765,-0.0042981448044651,-0.0041741868866216,-0.0033699514763223,0.0002345562519818,0.0061701229040188,0.008791778950734,0.0053797394553904,0.0008741629123167,-0.0063598649072457,-0.0051894196812337,-0.006603684321371,-0.0032500751696411,-0.00107224100569,0.0056252867932903,0.0075741842760882,0.0063084940596093,0.0045560058895498,-0.0008665535471564,-0.0052777033501854,-0.0116492477744435,-0.0119017741273845,-0.0046343526061952,0.0081670881453738,0.0137590272026529,0.0125075913057007,0.0086637137898295,-0.0008042286569712,-0.009892443916647,-0.0170325086644052,-0.0124872292462731,-0.0061161832890744,0.0035880110527072,0.0114823852978238,0.0182255129596089,0.0146428994429263,0.0051125651495933,-0.00839078007056,-0.0159674724272775,-0.0195266642573131,-0.0121491529468423,0.000575333619942,0.013930067596351,0.0170131213816519,0.0135363406329241,0.0058548771309207,-0.0040226998252446,-0.0141120698592927,-0.0125070465915748,-0.0096062644677883,0.0011798840724185,0.0082754579309449,0.0085626079435973,0.0055216754874211,0.0007402524203197,-0.002813981692545,-0.004906062700284,-0.004220171879768,0.0009732939894348,0.0062785018342162,0.0052048765081407,0.0001329037749113,-0.0049994298281139,-0.007449742779235,-0.0103956305088097,-0.0044211043386869,0.0055584666333762,0.0156805777066286,0.0176686761410595,0.0081514017218205,-0.0058433698274915,-0.0148331883755296,-0.0187281270031963,-0.0147102616560969,-0.0063085187881774,0.0093716829681837,0.0211355663282624,0.0218964233632927,0.0127920038138583,-0.0007355195199306,-0.015327151882174,-0.0195388905275889,-0.0188802326817492,-0.0084674970593043,0.0006744601110879,0.0122790452099782,0.0206573267097081,0.0206520721694205,0.0083955818105068,-0.0045497247410119,-0.0154023314712814,-0.0197953190889683,-0.0168494983353352,-0.0038369366170491,0.0071873521416007,0.0141699327198644,0.0145849146506958,0.0088399692929414,0.0020975089176485,-0.0044560294382354,-0.0085589825509284,-0.0095328636084901,-0.004001232298188,0.0010447629058791,0.0011852819580776,-0.0070889102221347,-0.0060848846843841,0.016036286173589,0.0147576254706376,0.0049319015586916,-0.0009541472380157,-0.0006039494301297,-0.0026014741092572,-0.0180524296153492,-0.0312857199645512,0.0089149994967871,0.0123436504921056,0.0145776144735044,0.0180635020462049,0.0149926876333842,0.0011981668808494,-0.021446105410933,-0.0427028657765828,0.0014476364848814,0.017768624622442,0.010391183429202,0.002196366323597,0.0028883340731476,0.000546916210526,0.0041203913469254,0.0028347455431817,-0.0018627750097056,-0.005550751945353,-0.0192657976787981,-0.0149031790682644,0.0213716909090643,0.0160734501833414,0.0125665814551466,0.0013388014090295,-0.0178852005650015,-0.0304949873738627,0.0083462483070559,0.0179963740318283,0.0007415600341349,0.0189980865963113,0.014108971963276,-0.0141867574110969,-0.0430426377378743,-0.0169593696799501,0.0024450986591101,0.037435079462024,0.0246494303123239,0.0088218039471892,0.0027256544043063,-0.0118296872076339,-0.0398947987478188,-0.0250667424985917,0.0131155532157663,0.0170431009021871,0.008068739130462,-0.0074588703208619,0.0366236584187578,0.0270826788073804,0.0042031609434457,-0.0565386639852306,-0.0744114576200229,0.0177120562363687,0.036451104589925,0.0238848197506186,0.0264996539093245,0.0091890209354761,-0.004453761663243,-0.0237917469531537,-0.0259353323453189,-0.0276261688568942,0.0149666201179653,0.007831621323632,0.0243221207642492,0.0165104800472625,-0.0080898134192556,0.0324233580513899,-0.0355099696812729,-0.0350837916678454,-0.0064406125936583,-0.0037552580254138,0.0218881793815621,0.036714590681112,0.0229074477452486,-0.0281714437184827,-0.0234608899831767,-0.0090927677265136,-0.0067243357982754,-0.006409709487582,0.0211882333432721,0.0089405126404208,0.0088955955293427,0.0280712446472727,-0.0060313105174234,-0.0370267521714163,-0.0225358062275875,-0.0121491947100309,0.0042893726599175,0.0093288517273436,0.0470078677217107,0.0310984008727634,-0.0084925003926742,-0.0292334458838544,-0.0386903179601953,-0.0260365512066952,0.0131282946893881,0.0265867334887684,0.0177478533286847,0.0129598603477489,0.0097108683998456,-0.0129726714315345,-0.0202035388183414,-0.0104593467044403,-0.0072143012237645,-0.0001153943386436,0.0042713009043765,0.0208675061415628,0.0169361902602332,-0.0065749352372557,-0.0141244136023018,0.0056286615483028,-0.0077854547323121,-0.0130028043857457,-0.0106616616835157,0.0087423849490641,0.022852195583626,0.0090238056395181,-0.0024955191591505,-0.0073938275584069,-0.0119328542106807,0.0115575050112039,-0.0116559473018445,-0.0091781040311079,0.0021435841850311,0.0059128463973789,0.0081823606887262,0.0097700564239352,0.0077718855403955,-0.0168317256352483,-0.0112938913097797,0.0133108999573154,-0.0060665161109627,-0.0073588077042693,-0.0160723637616811,0.0206541049969229,0.0228943321991819,0.0086001320934551,-0.0097618900388613,-0.043996995935797,-0.0024074117753898,0.0236685194733899,0.0118720541902859,0.0050213976118534,0.0094178623054563,-0.0015659591535147,-0.0240783449563889,-0.0248797914127384,-0.0021240436756785,0.0216481645853691,0.0235055606089359,0.0153699226091586,-0.0024506843571033,-0.0288940174673493,-0.0143922876389657,0.0139774394342787,-0.0030863630524949,-0.0082707483500273,0.0021531408623603,0.0111343137014022,0.0161625878677035,0.0075039719625938,-0.007133349284402,-0.0264600377754565,0.0018930597094084,-0.0004960742603459,-0.0139315820890828,0.0220714393895576,0.0200091048764888,-0.0018740945513101,-0.0193961971036807,-0.0152841394720787,0.0232033424692258,0.016928007181575,-0.0188684540379528,-0.0332467827672057,0.0137474108179118,0.0223194243585507,0.0141940036470954,-0.0061758444617606,-0.0263165220218691,-0.0040371705772268,0.0089963598176168,0.0125873281752013,0.005659522083848,0.0032411213687588,0.001018463104415,-0.0239974457527648,-0.0164638623263784,0.0030436065188527,0.0149008656253776,0.0152081594156376,0.0084774348403056,-0.0006320435611245,-0.0041286184133678,-0.0051606580554711,-0.0059348485840665,-0.0121830460179642,-0.0239649814338311,0.0136252550266881,0.024890637278323,0.0171685240878519,0.0017832010504225,-0.0054341286756643,-0.010771320587939,-0.0138856244662029,-0.0058966392792605,-0.0015054422326264,0.0051660229340787,0.0083202457614885,0.006101060253198,0.0067927440704811,0.0037506664948286,-0.0035102787665695,-0.0115777914250055,-0.0118932833286748,-0.0049438732936112,0.0044739760016138,0.010997034714984,0.0119891698282504,0.0063696413852039,-0.0004950150645085,-0.0114276240696347,-0.0118278593734539,-0.0069473257993276,-0.0036555273230252,0.0042838026602769,0.0125431082883298,0.0115811390064681,0.0051779079933599,0.0006877130181197,-0.0050576349838151,-0.0075476059473198,-0.0122528992737225,-0.0111321001267148,-0.0026237774025923,0.0066596442120793,0.009644251620755,0.016559659275104,0.0120492709500224,0.0021091455014177,-0.0064302823896716,-0.0129550166183297,-0.0154406261990075,-0.0155231775538071,-0.0051210012793476,0.0082322052353477,0.0163748610571225,0.019621662299218,0.0149114197077896,0.0015126808442358,-0.0099487088924753,-0.0155371546831672,-0.0173727478743846,-0.0127010710770056,-0.0040955944979988,0.0066425637835809,0.0174139587323637,0.0181104642633538,0.0090761959168734,0.0057375332190154,-0.004145857337683,-0.0133869501665057,-0.0196991646900212,-0.0138580502706179,-0.0058220846193267,0.0074003200265589,0.0144769780850925,0.0152286797111342,0.0112324734388872,0.0089043664901544,-0.003235701437871,-0.0143180175482434,-0.0189750581839648,-0.01543681833188,-0.0013791165594487,0.0065027717706769,0.0120506942788597,0.0142482120017902,0.0108555036297289,0.0046290513183782,-0.0041727941050718,-0.0118969626454674,-0.0132083356588727,-0.0095582988813424,-0.004658153047169,0.0036178251369966,0.009825058676289,0.012477789806998,0.0113892063203807,0.0033521453249223,-0.0046554497355905,-0.0101918446173926,-0.0120111782193544,-0.0097929961901305,-0.0025027804669736,0.0076840573644349,0.0112921005607679,0.0091288293806187,0.0061348574700348,-0.0013225268349581,-0.0062445711712844,-0.0097090370371193,-0.0063009639908347,-0.0043831307829392,0.0020040591673044,0.0072094486407539,0.008616779706529,0.0042212017895802,5.4327679107976474e-05,-0.003172721624357,-0.0070614474214854,-0.0020351678874501,-0.003139128869379,-0.0016173086051837,0.0037249431350749,0.0049951154287589,0.0044852639949632,0.0001571911225345,-0.0002173758452722,-0.0033698069680288,-0.0042214836134023,-0.0029725084937354,0.0007651144931364,0.0020566912215079,0.0014904297610731,0.0014250963383179,0.0021198226216125,0.0010786258771558,0.001041493301024,-0.0002124636867831,-0.0049103974352145,-0.0036333917073511,-0.0019583126367057,-0.0004283771414491,0.0024834600911399,0.003734545433528,0.0029812328882463,0.0027483560429927,0.0037890471991396,-0.0003310618443074,-0.0062122953105984,-0.0084451918359725,-0.0067143094631974,0.001498133650072,0.0035923775136972,0.0060310601938333,0.0078389820957403,0.0034709386447203,0.0027522796398349,-0.0032989262315329,-0.0088826045247942,-0.0079689093255268,-0.0049572073325839,-0.0002521026133251,0.0047907693965544,0.0082997494880229,0.0061668286315749,0.0053662072872692,-0.0005991102272524,-0.0045457460147705,-0.0086273017061709,-0.0061659933678826,-0.004732979553929,0.0036145378018478,0.0057500854337927,0.0065664459537887,0.0054242319606324,0.0014811109415932,-0.0019375290630059,-0.0090566182625538,-0.0065998475764968,-0.0027563680425391,,,,
-0.0097242659104421,-0.0096865838362228,-0.003642285962157,0.0021583980195926,0.0025058908893439,0.0043443104675694,0.0086311727882458,0.0059788232329394,0.0015641354677096,-0.0015116942291668,-0.008019482468331,-0.0098937670272075,-0.007849961444551,-0.0016220229415609,0.0065795084277639,0.0103173929004271,0.0112769763553361,0.0047621412515639,-0.0032928910430659,-0.0092672148253629,-0.0089102258420231,-0.0085954207378133,-0.0032596860305964,0.0062060314568602,0.0080401849869173,0.010166145000597,0.0066073001669918,0.0003064130953214,-0.0042526149719071,-0.0092940515887786,-0.010323146779926,-0.0074499867463684,-0.0022919008641399,0.0069649299772225,0.0129480037401078,0.0140814439318044,0.0061163443927656,-0.0015392783041318,-0.010495342552173,-0.0149788584225681,-0.0134703054928386,-0.0040163453495374,0.0054162185275509,0.0102533482452959,0.0163696482173105,0.0121238063420351,0.0037934666882129,-0.0070553150837529,-0.0129994634266534,-0.0176046029462667,-0.0098648313734126,-0.001384854924436,0.0087679341699767,0.0137506798573169,0.0152533733846813,0.0102509319148247,0.0006993992401523,-0.0096935043905082,-0.0168160719383703,-0.0152241553034016,-0.0089687756023252,0.0022826052699981,0.0142123539804102,0.0169429232531446,0.0118272920292284,0.0034105312480487,-0.0025146379156171,-0.010288945707757,-0.0170963673200294,-0.0131565957196068,-0.0045566601647559,0.0042996827678369,0.0151096797437513,0.0165589240932968,0.0125310678963945,0.003355576120333,-0.0086468832911549,-0.0185133792849296,-0.0158860918010728,-0.0086430391807102,0.0024010626686567,0.0101091011721758,0.0181844158517602,0.0128509124535935,0.0028761757541079,-0.0059688832129326,-0.0101825578125116,-0.0124166075092045,-0.0077551744925771,-0.0009008399192939,0.0050068023605778,0.0098670500306288,0.0076874744151905,0.0018716662601937,-0.0003448548827729,-0.0036129141788961,-0.0034736223847572,-0.0019953649873444,-0.002925432664606,-0.0013922131088883,0.0009396183627459,0.0034971581209452,-0.0004177723630802,0.0007160910707011,0.0006814871418598,-0.0002620477905433,0.0019726771874053,0.0009962804735674,0.0028715565103225,-0.0021023060967818,-0.0032997030241165,-0.0037987845302723,-0.0048743294244074,-0.0013240852858049,0.0036209724455887,0.0085722426320909,0.0046257375047779,0.001081209581336,-0.0015802856133542,-0.0042607128956895,-0.0053349943015223,-0.0038474503050435,8.702259311995272e-05,0.0028426198382682,0.0028246221952126,0.0033724949837031,0.0011605570264624,-0.000746374452561,-0.0008993917716357,-0.0025991591408088,-0.0022737113832916,3.024292078080904e-05,0.0007922992823163,0.0036458706708365,0.0026679273710005,0.0023124183900772,-0.0044956948771917,-0.0074148698885,-0.003351601385646,0.0011400102014698,0.0037418333381055,0.0066001728890524,0.0044103396202215,0.0014832852404918,-0.0020570984156097,-0.0027964597044268,-0.0043908390108173,-0.0057710278225078,-0.0041111748550696,-0.0002596718521624,0.0042105780842603,0.0077356036290195,0.006147371900012,0.0034696276007791,5.658474503923718e-06,-0.0054200628759729,-0.0059011651507134,-0.0068621294429961,-0.0025984123280347,0.0015124173510467,0.0039985923669097,0.0030979059933296,0.0051041852172622,0.0032580874394483,-0.0010403688511674,-0.0015333532357082,-0.0024486480896041,-0.0041740362371948,-0.0031359431292123,0.0016156050521867,0.0022260293362367,0.0013745908218219,6.159984396161715e-05,-0.002886283766868,0.0006048915241452,0.0033714179081526,0.0019154436259043,0.0019527737697846,-0.0005418451714302,-0.0036657034455764,-0.0016064575099017,0.0002372453612484,-0.0036061501923544,-0.0025376707957054,0.0003692744847133,0.0038868001929907,0.0041911497697037,0.005456345386411,0.0030895894856841,-0.0015816361244034,-0.0068468971991012,-0.0072616208842475,-0.0054208639013028,-0.0006865207226427,0.0046265381946025,0.0062954452024423,0.0084926426531166,0.0053047403856729,-0.0007164677110667,-0.0065537231436277,-0.0102436866567709,-0.0092669549708228,-0.0025512380508129,0.0073480011125762,0.0103711685221646,0.0074985018876174,0.0035546989086378,-0.0025140128326511,-0.0037038227775829,-0.007816600115224,-0.0071513359589199,-0.0049955956806152,0.001845823301094,0.0072784001980332,0.0082886578584977,0.0077214168428327,-0.000320957256649,-0.0045476892439417,-0.0039800697082166,-0.0057481932023017,-0.0058268525597275,-0.0007951232733353,0.0030844791003646,0.00507218148372,0.0051728905128171,0.0015592342077324,-0.0001516657200891,-0.0016246379646827,-0.0024277819072277,-6.51740424197018e-05,0.0005332855187899,-0.0033475357278398,-0.0020684463520913,-0.0029838883270474,0.0010290843311687,0.0024786573901079,0.0032371861309097,0.0052950809545582,0.0058874707669643,-0.0018815210553277,-0.0050967570343804,-0.0052186442910155,-0.0064740021738892,-0.001280985900642,8.247500581260028e-06,0.0036412182753043,0.0037450095014166,0.0044888832224172,0.0035943165185671,0.0039410086922977,0.001490735116025,-0.0027616611971373,-0.0104515417281923,-0.0108884370720113,-0.008190540790323,0.0003104637397819,0.0133407612593326,0.0163831382751129,0.0151563509535546,0.0034567285107626,-0.0142596861338749,-0.0381328305773079,-0.0117113689291072,0.0266822013858594,0.0232928339742903,0.0066479698632413,-0.0201093367441434,-0.0023545235015201,-0.0056071534133524,-0.0150078402331089,0.0188471035420608,0.0197958169553081,0.0126279907920572,-0.0108515683883676,-0.0330250281428525,-0.0259280517388778,0.0224888180916169,0.0308537078393351,0.007474170166966,-0.009095015015053,-0.0155198013902337,0.003619002370965,0.0072252345860134,-0.0096349858947549,-0.011159573351772,0.0215981819638626,-0.0141001478293244,0.0053912880686421,-0.0001958599161814,0.0086770852469385,-0.000529717069433,0.0105598030472895,-0.0207437347418232,-0.0133422890885811,-0.0020117065904517,0.0035939747074363,0.0467183012216244,-0.0012380714782438,-0.0154379593215196,-0.0429152593656774,-0.0154851548881786,0.0288090968260729,0.0353259860954802,0.0311909372949717,-0.016147494531025,-0.0452107072635742,-0.0732613564576754,0.0506707625650871,0.0656707856151126,0.0121835267520856,-0.0364808552710987,-0.0070973439417743,-0.0129327790559031,0.0105503041269589,-0.0036894743735515,-0.0163377301846128,-0.0005779507047996,0.0225662712400819,0.0187268963153159,0.0026416923022989,0.0106379192469486,-0.0426543978015229,-0.0233438141145678,0.0241818648409427,0.0059370565014188,0.0075375692977149,-0.0199874305591842,0.0002456387209329,0.0299660366095766,0.0128939712718985,0.003863042994519,-0.0228331208430032,-0.0375629008701604,-0.0081682301170272,0.0142086145250604,0.0178353297275091,0.0242978800994565,-0.0012211799999049,0.0036546114618248,-0.000156074055566,-0.020121381474435,-0.0395490798381848,0.0058686708342625,0.0237153556054111,0.0196197959020938,0.0064848233485872,-0.0022083657794534,-0.0176875129243882,-0.0016469133284076,0.0088727457627063,0.0014443402333116,-0.0130661359380107,-0.0077930698804647,0.0021541037804433,0.0039154125712252,0.0055982871932638,0.0111772059311717,0.0095948670073108,0.0012882467425822,-0.009686657797112,-0.0142089996472932,-0.0135273102318451,-0.0044120248544201,0.0052522682935456,0.0141551444180135,0.0125166720290892,0.0081548572069739,-0.0020633419920515,-0.0068149236961125,-0.0048482402373853,-0.0094277724204989,-0.0083022803220454,-0.0040122891730918,0.0037597592703023,0.0090359206085897,0.0113168280715142,0.0116770991650186,0.0031800111924097,-0.0069687400239149,-0.0138087597330078,-0.0175582676959351,-0.0056191182975918,0.0037451129549288,0.0079338417635423,0.0162309453955766,0.015028369116415,0.0050249259953397,-0.0040686847075823,-0.0139521302193158,-0.0226070647309249,-0.0118181181184235,6.482295339241961e-05,0.0082958636408023,0.0168498358286278,0.0204155317115635,0.0134294476137437,-0.0003774784907696,-0.0152387958029623,-0.0271962033445596,-0.0159505510418445,-0.0024058062037298,0.0062352292588947,0.0128176583539418,0.0195240172449027,0.0134903612270565,-0.0002935481877035,-0.0008215043075549,-0.0092376754624998,-0.0154966065907469,-0.0176173402912455,-0.0074746479550649,0.0033728165347625,0.0121425483807833,0.016982889270732,0.0168504922791091,0.0086561989671366,-0.0064154912305269,-0.0142721349539125,-0.0170289885404012,-0.0140655616845879,-0.0043553547436601,0.0064361462856212,0.0123493706680528,0.015507246862629,0.010172494136192,0.0051437450172621,-0.0066370665022546,-0.0116774195455008,-0.0123387440094509,-0.0100133704661595,-0.0011057786370369,0.0039310338493609,0.0092969912003769,0.0103145420877331,0.0093611195956301,0.0033188813154547,-0.004842708541705,-0.0097390895399451,-0.0100903231175733,-0.006150121111573,-0.0027834335977915,0.0042883191403358,0.0100697408626911,0.0085625075135908,0.005551094318026,-0.0015030128435433,-0.0026920784921227,-0.0084586850092322,-0.0083845257883757,-0.0007314673374216,0.0009792211138199,0.0024448874515969,0.0049837594866741,0.0053174043540612,0.0009113578948736,-0.0003912001833647,0.0005324886535009,-0.0019873846800154,-0.0042527293289024,-0.0063133935733624,-0.0018502045920044,0.0025554848963432,0.0052901588790408,0.0029703846579098,0.0027837903655248,0.0008437130578893,-0.0038643995136229,-0.0027322885513123,0.0001914587231224,0.0001980187394054,-0.0006525114413656,-0.0008116512520267,0.0016455807801066,-0.0010985939327651,-0.0017975204140502,0.0019200553993881,0.0005944108957795,0.0014112981563634,0.001742194772123,0.0012907232662874,-6.483660169270971e-05,0.0003468032466271,-0.0015880477859426,-0.0050019166035104,-0.0044001556537953,-0.0044058933152445,0.0015998330584505,0.0050901487176017,0.0091807688881441,0.0077663904819563,0.0031337944535061,-0.0007255526885612,-0.0086290319957862,-0.0127747432732842,-0.0118441369000825,-0.0040667741329614,0.0055748977161599,0.013455350776042,0.0138064269554847,0.0101075277002486,0.0008856080686357,-0.005623408520571,-0.0100021351048633,-0.013749981547761,-0.0109853526333705,-0.0059436897887967,0.0077766346832718,0.0117733373313951,0.0132708884698861,0.0094693672309252,0.0044556841977063,-0.0035893355117389,-0.009185059029787,-0.0151532219244625,-0.0112910286139883,-0.0039122985882142,0.0017572917674323,,,
-0.0075248971707369,-0.0042223953270112,0.0005944991689467,0.0059031679764241,0.0084574518309295,0.0083701561107171,-4.23992989621951e-05,-0.0075546864538026,-0.0117761406187346,-0.0099617982965798,-0.0002476905952274,0.0067892995465031,0.0114483515983467,0.0107733745904081,0.0066776570254089,-0.0032535522192629,-0.0104037583933322,-0.0137415397121454,-0.0092393691561086,-0.0024084103253929,0.0065235451445681,0.0117444681070808,0.0103777178030761,0.008880602772093,-0.0012215984861258,-0.0071427220825745,-0.0105552865571332,-0.0095957700647885,-0.0023372842719217,0.001452729073436,0.0057062741944398,0.0082316886267557,0.0041927333161482,0.0004153126148824,-0.0030038471998889,-0.0038431330305843,0.0005024715538263,-0.0006847819439591,0.0002672153538001,0.0020277213575688,-0.0001198762347964,-0.0048507671525515,-0.0056870599612422,-0.0016496373523886,0.0020042867507319,0.0058008873214442,0.0098718379189182,0.0077126761695262,0.0022039828190155,-0.0067742640916589,-0.0107943071381229,-0.011968080629108,-0.009831666496292,0.0008374029177992,0.0087320729435809,0.0146902126861549,0.0142945962222823,0.0059320751379515,-0.0020742165065427,-0.0105117604236813,-0.0141714877248799,-0.0124551019575554,-0.0051768616951349,0.0041902528926122,0.0101293375170393,0.0108119959135722,0.0093681789916572,0.0032287560127692,-0.0022540537845692,-0.0068922403501291,-0.0096893539635768,-0.0041638028884794,-0.0018997803280154,-0.0005595088484796,0.000779274342282,0.0042899261906757,0.0062550103380944,0.0059056133632284,0.0021243342119399,-0.0027720703451129,-0.0047373257107988,-0.0050251027521186,0.0006716932327757,0.0003767072707622,-0.0026159929056471,-3.2104015404687186e-05,0.0014718384038435,-0.0003255122877117,0.0010220463375568,-0.0005338921029663,0.0060256305802087,0.0057363567050778,0.0016173636035336,-0.0026610120935795,-0.0054383779780129,-0.0077023161492167,-0.0067064107872446,-0.0055395929162725,0.000961978899472,0.0106413899647742,0.0148725859136932,0.0105373295793987,0.0034873653229892,-0.0072702423683627,-0.0148838166212614,-0.0155944696447478,-0.0061660079640447,0.0007481599191204,0.0088798048045251,0.0094166544199686,0.011322655994999,0.0071268092666969,-7.624152053081062e-05,-0.0047668129856776,-0.0089567958822336,-0.007850429898485,-0.006843991924285,-0.0041082707078128,-0.0003404308050519,0.0090429398032723,0.009468445027635,0.010970918623011,0.0044726278521381,-0.0043259306324214,-0.009269407808372,-0.0115773108956194,-0.0053429140654575,0.0021706185795478,0.0043219858774439,0.0074388653583056,0.0046832176900188,0.0015688373989767,-0.0036608061409383,-0.0189104716078859,0.0084164678084409,0.0162704525081613,0.0075831140622949,-0.0075888954546637,-0.0100057040587309,-0.0063654361931458,-0.009435362008965,-0.0130765861516958,0.0151048329926853,0.0309051871019247,0.0215991050461816,-0.0050592268125631,-0.0311596493940865,-0.0346427999025309,0.0049048104654185,0.011428803935046,0.0199951618552099,0.0128935718106512,-0.0046262066887089,-0.0120239280996602,0.0050175069714598,0.0038735680778914,-0.004805931435959,-0.0070183978486002,-0.013906505343945,-0.0150138494007394,0.0184959630633347,0.0278899886042839,0.0169161393300011,-0.0042316757979437,-0.0223198140297382,-0.009602519524954,-0.0177845918603264,-0.0021262773076407,0.0151614443549911,0.012617459689713,0.0035741032894648,-0.0015092345465237,0.0035776574479933,0.0038685426663434,-0.0016528184965833,-0.0040335095077038,-0.0110185031988215,-0.0264769811143308,0.006436769475943,0.0182785719689272,0.0081125786485765,0.0211251690667425,0.0036435042349536,-0.0195023516506021,-0.0115170917504113,-0.0119244908621421,0.0101369291962698,-0.0003086853988604,-0.0081209102262958,0.0088136189787962,0.0028948945306927,0.0282210673218385,0.0047599128660855,-0.0290940584676037,-0.019317323640035,-0.0111082921340953,0.0142287148343055,0.0241584626964493,0.0046242958605892,-0.0052730861029851,-0.0086712388739131,0.0156723752405895,-0.0191892348629999,-0.000233483691993,-0.0077736538782098,-0.0159527420806096,0.0183744477549341,0.0282585990829487,0.0018871110148711,-0.0200754978798516,-0.0073190951905806,0.0172510357009182,0.0049697285538161,-0.0122850881493427,-0.0271914473953733,-0.0058496017075925,0.0003046811998528,0.0337605356950713,0.002878059651303,0.0262597691173757,0.0106379806882416,-0.0319409029367536,-0.0158494142164113,-0.0029021168270062,-0.0317532443316517,-0.0217281818295972,0.0085087834721135,0.0634131039126994,0.0562735215664571,-0.0051981340053689,-0.010237209749965,-0.0476363963163913,-0.0453385511526878,-0.0239483054639944,-0.0210793293989517,0.0774822383545351,0.0429776599160955,0.0042906326783259,-0.0040356899127811,0.0011631297720543,-0.0114724106836699,-0.0336648284134109,-0.0360742926657291,-0.0218649083374256,0.0303635845490863,0.0334984877748067,0.0311731572458272,0.0229896163904528,0.0047546244704115,-0.0401394833080086,-0.0468800257237836,-0.0059646396570228,-0.0050628751486395,0.0187197797792772,0.03111224622747,0.0060728344042438,0.0112074545692908,0.0118097859152761,-0.010783153590723,-0.037010358885691,-0.0237989659753387,-0.0245007648667538,0.0242702705475934,0.0560409265640462,0.0367794526450142,-0.0083374877362717,-0.0523510100271587,-0.0188037725595909,-0.0090090063255045,0.0009336514356206,0.0186555743533215,0.0150053283742746,0.0095439891504587,0.0167790327655373,-0.0108853260282744,-0.0211671090943863,-0.0141153063686499,-0.0159750237203596,0.0195775715856403,0.0327475555001293,-0.0036144126283648,-0.03495738561739,0.0071173089182346,0.0163212347714736,0.001624230991319,0.0001378793194778,-0.000550483549136,-0.0155927906379541,0.0042437028637341,0.0046341073207782,0.0031463478849418,-0.0049149057563572,-0.0184899919449132,0.00760352979628,0.0168307460456046,0.015302189934405,-0.0051719901694588,-0.0096643323245744,0.0027737226454231,-0.0100653849582281,-0.026211166126609,0.0063931405380094,0.021724368350767,0.0124889818594394,0.0019138384681028,-0.0120151889729185,4.631661379127838e-05,-0.0008902913832463,-0.0012347442341191,-0.0003244888851086,-0.0025919255493593,0.0003443973230228,0.000861456962926,-0.0003260614965423,-0.0027765042800102,-0.0014854374756329,0.0056190988026528,0.0058804710037983,0.0040517976141077,0.0007989581724034,-0.0028386190653377,-0.0104197998884089,-0.0092159849428549,-0.0001422248454513,0.0057538074476457,0.0067364879213732,0.0072452622542261,0.0012834311839431,-0.0039910939292979,-0.0035028354524749,-0.0034875817387718,-0.0003992930349394,0.0005230193327572,0.0009054824823913,0.0039676316750106,0.0005612284433875,-0.0023250876402429,-0.0051482572191309,-0.001919262143482,-0.0027198093290522,0.006017752114605,0.0117286882843996,0.0078913205996329,-0.0017207382480971,-0.0109353440265883,-0.0140549593731026,-0.0091433292015664,-0.0004415904813531,0.0094704012534707,0.0158071352396929,0.0097343800323289,0.0041076958456344,-0.0035275229604633,-0.0122540183250346,-0.011590827892657,-0.0076909731097608,-0.0013566122426689,0.0050291723338069,0.0103692670654854,0.0095851214707131,0.0061319030156092,-0.0019404436931996,-0.0053474693081167,-0.0085846197459874,-0.0046274474744937,0.000302290323465,0.0004282191483633,0.0011677306041944,0.0002043476112527,0.0036059912422068,0.0047428338000477,0.0027726020929056,-0.0005040304879521,-0.003820392183831,-0.0044026697279172,-0.0033348073838297,0.0004912426479645,0.0031506364616712,0.0039153038921762,0.000677903916667,-0.0005888402989551,-0.0032399917723581,-0.0040736938852117,-0.0007039457293697,0.003000869557965,0.0026513249176811,0.0038250820082548,0.0039784872656453,0.0021207904779729,-0.0039690271161592,-0.0092716089266371,-0.0074745520876227,-0.0041814099464756,0.0029015650691198,0.0082388709979689,0.0120279274783856,0.0068477026774419,-0.0007387928702443,-0.0055116726063504,-0.0098290187581387,-0.0075079759065467,-0.0039809047496998,0.001182064286399,0.0032902290165739,0.0076265154347309,0.0058718474802968,0.0053764807864055,1.6450152825589606e-05,-0.0037928124388341,-0.009566937494018,-0.0038345084212127,-0.000740364252731,-0.0001517926039005,0.004439705743884,0.0019348464266049,0.0035481165389983,0.0015480367444493,0.0012107294155882,-0.0012505290273565,-0.0046659192093252,-0.0037836927157363,-0.0018537705958577,-7.304664794590191e-05,0.0072959953883052,0.0047448697637162,0.0024202233170861,-0.0033022518176593,-0.0081877551094631,-0.0058378114855298,-0.0005334010767513,0.001873384778175,0.0062695800221891,0.0077993107367646,0.0075426330820455,0.0012242244477603,-0.0065339881219869,-0.0101822837797666,-0.0121126679424699,-0.0088254351098647,0.0034556854667653,0.0120257893268363,0.0156877306104687,0.0117972470120923,0.0023419908295165,-0.008296975180878,-0.010997510605879,-0.0117388072620531,-0.0110648168868224,-0.0030848716869611,0.0062108578802555,0.012797301182832,0.0116728844960967,0.0099108866681749,0.0024937784479609,-0.0072906175679306,-0.0117696708384894,-0.0096394829410733,-0.0064232468801497,-0.002047753149661,0.0056744938880636,0.0076178855624976,0.0087871306411844,0.0057724998776848,-0.0020385573161242,-0.0031852064352894,-0.002319043452395,-0.0021949720095539,-0.0061230672570193,-0.0022670909801892,-0.002817977875591,0.0002764038231979,0.0047370272501097,0.0050543952237282,0.0072514958091772,0.0048444722387407,-0.0004022736664763,-0.0054508867337573,-0.0087557674973642,-0.0084139876966517,-0.0056022535959853,0.0016606038893464,0.0074194696832127,0.0097537959611597,0.0099582440156247,0.0053726299310142,-0.0029377018262844,-0.0088812165486146,-0.0106876841171685,-0.0098020855260712,-0.0061673734471996,0.0016346468340984,0.0090718192796919,0.0165736672369641,0.0125844861132051,0.0041990171014857,-0.0049670775131851,-0.0120957769444686,-0.0162392924234316,-0.0128797367495079,-0.0043138065108057,0.0071836575755529,0.0158291808067485,0.0179875016931426,0.0095743667093891,0.0014140615915187,-0.007916833121833,-0.0164303699373885,-0.0161220366905584,-0.0114377791532724,4.6671876971278515e-05,0.0113643803318096,0.0206256810690293,0.015443341889438,0.005974757083463,-0.0071006446704209,-0.0147590372748084,,,,
