0.0008347752692385,0.0004974878252322,8.679279570252563e-05,-0.0003285552861487,-0.0007255385354783,-0.0010620568753895,-0.0012282047226465,-0.0010635739121551,-0.000441093312495,0.0006185316176267,0.0018575380366367,0.0027826060942452,0.0028089842084804,0.0015422333085037,-0.0009014727944604,-0.0037222962320954,-0.0056028513932806,-0.0052699936836542,-0.0022538645280305,0.0025825654970016,0.0071694587559992,0.009117604519906,0.006986567871594,0.0012281199801923,-0.0058009268510455,-0.0108619277583239,-0.0114026228341733,-0.006857106406818,0.0009984311170409,0.0088128903364789,0.0131637056790418,0.0120753295785254,0.0058731608551195,-0.002958481308002,-0.0108039383162883,-0.0143871240040383,-0.0121123814873542,-0.0047643476284112,0.0047271140918434,0.0124241619015872,0.01502286896368,0.0113266780890977,0.0028591014355211,-0.0067426486817715,-0.0133343701410287,-0.0141370604207991,-0.0089819761349142,-0.0003304847324632,0.0079306489073314,0.0123152196659027,0.0112848061284615,0.0057870496406361,-0.0014032125529044,-0.0071189080220543,-0.009245922158674,-0.0074943509837894,-0.0032314685446221,0.0013955498188245,0.0045229510059763,0.0053082184278881,0.0040749655887263,0.0019056739925361,-4.178354370035653e-05,-0.0011247192342463,-0.0014183560525563,-0.0014581248557414,-0.0017210622091341,-0.0022061470867884,-0.002404705580573,-0.001687133759452,0.0001565282701196,0.0026037061198903,0.0045588402752028,0.004921034493836,0.0032233382606953,-3.98670858102443e-05,-0.0035833039248639,-0.0058986011442896,-0.0059314386755991,-0.0035642194429064,0.0002948063977469,0.0040636348096727,0.0061596298546681,0.0057161867054926,0.0029967411172727,-0.0007321916290299,-0.0038311162524157,-0.0050890821909503,-0.0042553409842121,-0.00202513970753,0.0004591480690819,0.0022456261593421,0.0029594786741752,0.0027653829380709,0.0020393283638402,0.0010513248879267,-0.000113366786639,-0.0013936329837028,-0.0025474944213593,-0.003124277872237,-0.0026835578004151,-0.0011209793422735,0.0011393749032622,0.003241948956391,0.0042524313096279,0.0035884279174923,0.0013293419114207,-0.0017273115295394,-0.004311704356959,-0.0051882527409832,-0.0037593393985234,-0.0004789169688425,0.0032158091224548,0.0055352914071367,0.005261693927408,0.0024510424832308,-0.0015289873531536,-0.0046919480010875,-0.005483401842844,-0.003597684953401,-0.0001045557796709,0.0031676541619296,0.0046247285932586,0.0037154292156037,0.001130217502465,-0.0016717067973478,-0.0032913617461052,-0.0030913298798325,-0.0014138069512741,0.0007266553758008,0.0022329284385846,0.0024550149329521,0.0014175109606342,-0.0002942510686302,-0.0018574585377089,-0.0025615320054942,-0.0020575899642518,-0.0004623933639068,0.0016816465270911,0.0035679872747241,0.004360197480643,0.0034227764523501,0.0004751109358122,-0.0043650779789421,-0.010625705117456,-0.0175163125637557,-0.0068505545263126,0.0222587844663013,0.0299550523742254,0.0197950088082012,-0.0049846331110279,-0.0334569152849991,-0.0279413194813051,-0.0416778599895189,0.0305536826846541,0.0470634056139058,0.0276358574139091,-0.0019512337469871,-0.014024664971372,-0.0189063341163764,-0.0213877806441735,-0.0181828698244991,0.0061924820946124,0.0224158037298749,0.0199194652491624,0.0084994416590794,0.0003736153770562,-0.0089767931479782,-0.0174649131690041,-0.0072722429289049,-0.00030339355553,-0.003870529519401,0.0045274526962646,0.0135049920583227,0.0100672727237571,0.0058463488460294,-0.0022440782947617,-0.0106208843163608,-0.0129384302572672,-0.0106595436295022,-0.0051812421755588,0.0186326715424049,0.0156986466398198,-0.0063738927972735,0.0051482444249014,0.0074364803195264,-0.0015677772081821,-0.0157651384195381,-0.0199236684327224,-0.0013263133947372,0.0022097663438075,0.0093266772557524,0.025784914122863,0.0180520516153769,-0.0064843623408846,-0.022657578596517,-0.0287837440839518,0.0022114067418593,0.0095884494223807,0.0087506461908105,0.003602148301379,0.0085493853872974,0.0060271910358872,-0.002305979605205,-0.0089006354315549,-0.001063131236353,-0.0075507122957685,-0.0116895322536734,-0.0029019696232755,0.0167940845407617,0.0177266895277887,-5.415398016771399e-05,-0.018756390866689,0.0043238775012094,0.0082476071324496,0.0033401915921325,-0.0078157703000399,-0.0257600033961141,-0.0041034036076847,0.015384112775644,0.0213383965505799,0.0118677182562004,-0.0007575020665425,-0.0127110078014394,-0.0310365060027023,-0.0062858209280394,0.029138820607424,0.0082447216108802,0.0041725029009897,0.000530703725363,-0.0113620008253188,-0.0223186505643573,-0.0138862631204419,0.0166534356812864,0.0423284185654115,0.0206560331954333,-0.0301163534749677,-0.016951272256231,-0.0053442900287553,-0.0267069805543597,-0.0076659611044323,0.023189182626946,0.0276331374642546,0.0220156485600769,0.0181167109600093,-0.0063195437486827,-0.0574557326514994,-0.0390822428402628,-0.0056319108082533,0.0518445915538851,0.0380694634620259,-0.0284478874653437,-0.0037923705939197,0.0337025395570714,0.0008405399140039,-0.0445072157130185,-0.0263786856541941,0.0136184516763333,0.0337472852249629,0.0045564792211863,-0.0294999819591649,0.0133648001540798,0.0178287411437074,-0.0047592146127646,-0.0465655549710393,0.0177502304358844,0.0429453948153479,0.0096477250264552,-0.0113574839080447,-0.038399407769046,-0.0117007882909695,-0.0008865234868476,-0.0126207594125143,0.0267481555895335,0.0380838665045034,0.0233756027071317,-0.0019566113283586,-0.0322988277300847,-0.0336836698251619,-0.0264211974308462,0.0112742554752501,0.0164508280322093,0.0177249991288716,0.0079642538495917,0.0163974229497291,0.0112671971532356,-0.0035554725734445,-0.0319322004136087,-0.0145944381068005,-0.0262491559825677,-0.014891824075284,0.0444812487864952,0.0416733552613326,0.0141403746035386,-0.013926851506223,-0.0279177042913951,-0.0195585196477817,-0.0086088110607202,0.0069563509319047,0.0084699696159812,0.0168787489188333,0.0165553680145457,-0.0042406596426441,-0.0247322139003693,-0.0145811865787905,0.0109104717033832,0.0110541321369549,0.0045518603266829,0.0012260380641674,-0.0043735828579454,-0.0044343896564925,0.0001735719767794,-0.0034433759470622,-0.0008801623960012,5.90912533427989e-05,0.0084769699503527,0.0021410992063924,-0.0075997622360863,-0.0019858412821744,0.0082237791908495,0.0033653986972809,-0.0032870561808295,-0.0067976417530545,0.0015128863765502,-0.0010590220843282,-0.0081497547340525,-0.0015442031220937,0.0121421250565994,0.0115245011415679,0.0011422613883439,-0.008328291860668,-0.0081691138620864,-0.0010327476474748,0.0016536757585593,0.0007960479003674,0.0010979506845452,0.0016786760622348,-0.0019510182529666,-0.0043130467946972,0.0033434782321777,0.0070732387335587,0.0011118940268523,-5.0249183566286174e-05,-0.0042246641866119,-0.0027671021573792,-0.0005764746105654,-0.0011942012451975,-0.0016212954109253,-0.0016659521159043,0.0026433214322914,0.0040018500676231,0.0033666800959852,0.0018629756449885,0.0002472073803955,-0.0012253300153128,-0.0025512060721948,-0.0035909409239769,-0.0038812179739358,-0.0028509920612516,-0.0003321121794927,0.0030206250238473,0.0057944944893688,0.0064616551446771,0.0042758763188703,-0.0001335156540114,-0.0048965502537638,-0.0077688397052545,-0.0072821198219063,-0.0035403064977719,0.0017888979531884,0.0062839301349875,0.0079433146255907,0.0061191378102389,0.0017645537791971,-0.0030851772978833,-0.0063012743947651,-0.0066180710110698,-0.0041207885169774,-9.8208822213189e-05,0.003607106379134,0.005432881834951,0.0047555235587134,0.0020966226133351,-0.0012011152311898,-0.0036495107886085,-0.0042852236325285,-0.0030134745697889,-0.0005281090898462,0.0020597875508625,0.003674736970138,0.0036593158476416,0.002006044151223,-0.000619545222608,-0.0031042252848614,-0.004324955596271,-0.0036485244273647,-0.0012647096475443,0.0018425029860373,0.0043171015481818,0.0050539572538609,0.0036990002767453,0.0007785211644899,-0.0025647608945114,-0.0050520616513529,-0.0057369261914618,-0.0043065359253653,-0.0011661184900043,0.0026732968117445,0.0058658391115431,0.0071294357553061,0.0057171892577752,0.0018263453432702,-0.0032699336460087,-0.0075543560737842,-0.009053553564792,-0.006789042907454,-0.0014048077822818,0.0049404325228372,0.0094713273996748,0.0100885987741178,0.0063987371741809,-6.528254865740722e-05,-0.0065460057309079,-0.0103121784176788,-0.0098346128420199,-0.0053691530103021,0.0012328153161307,0.0073223732200943,0.0104991200346191,0.0095137947368539,0.0047246057221013,-0.0020333760984591,-0.0081148918266109,-0.0110482340094534,-0.0095131374948925,-0.003960666978527,0.0034217957844959,0.0095124009969292,0.0115995132476916,0.0086853612741705,0.0020492728776308,-0.0053135271978523,-0.010139656768961,-0.0104638147213413,-0.0064655663147572,-0.0001961401081041,0.0055671260499268,0.0086427321614581,0.0082516759711781,0.0050238946111416,0.0004206966547991,-0.0039590747227158,-0.0068388517444842,-0.0074471106394249,-0.0055870950504442,-0.0017212993307152,0.0029881378669384,0.0068703119638943,0.0082830260036853,0.0063660102490411,0.0016303364946925,-0.0040383949512623,-0.008123540447673,-0.0086787746140309,-0.0053567517220714,0.0003375096232224,0.0057579793595528,0.0084337554449806,0.0072788082736975,0.0030453777274974,-0.0021823169697024,-0.0060994656404588,-0.0072390656786322,-0.0054553953806133,-0.001735849651025,0.0023835995840204,0.0054335863138463,0.0064391061196515,0.0051255303501372,0.0019455979553471,-0.0020476838476979,-0.0054796074760472,-0.0070568622760473,-0.0060143814576346,-0.002476197841916,0.0024259106802223,0.0068130866837131,0.0087265308229063,0.0070146954183683,0.0020360068459878,-0.0042648697446519,-0.0090942347078181,-0.0100981257615612,-0.0065697757035084,8.74562888045249e-05,0.0069338120111799,0.0108370002212306,0.0099259478129609,0.0044792048272014,-0.0031353009021259,-0.0094595745930856,-0.0115029568621073,-0.0081907496624445,-0.0009824216065933,0.0067373408369016,0.0112709881969369,0.010433332589402,0.0046469834494018,-0.0032673604807986,-0.0095001352985897,-0.0111340137150089,-0.0075369004083185,-0.0005825200740884,0.0063615203673863,0.0101140636699489,0.0091674403548193,,,,
-0.0066921562150341,-0.0136705054365514,-0.0151452675815114,-0.0111076340740471,-0.0034785930579159,0.0047953439639527,0.0108264102107534,0.0126995274203239,0.0100057405713643,0.0039013599174793,-0.0033127251886793,-0.0089938365527974,-0.0111095619050182,-0.0089986979916264,-0.0036209424589388,0.0028360865665526,0.0078442277623572,0.0095456152392354,0.0074655585517245,0.002643189944309,-0.0028543489124978,-0.0068146313594657,-0.0077810627868896,-0.0055964684234634,-0.0013821101058695,0.0030021279616973,0.0057614747824415,0.0058973273124806,0.0035787355088317,1.169950195615501e-05,-0.0031383830334757,-0.0045202529383458,-0.0037079967556106,-0.0013496099404253,0.0012243817815794,0.0027258055876226,0.0025740118116129,0.0011378292145123,-0.0005641299966338,-0.0015051771249222,-0.0012429536743115,-0.0001221775824817,0.0010022986447801,0.0013252216465615,0.0005862361100227,-0.0007831696141151,-0.0019260773083835,-0.0020697643932016,-0.0009843307998965,0.0008631069609818,0.0025390933892304,0.0031308446933863,0.0022280279975487,0.000150204475497,-0.0021869524786552,-0.003692877539459,-0.003612995835363,-0.001899921226424,0.0007318641272348,0.00311650742078,0.0041827157020862,0.0034636524754747,0.0013044500945565,-0.0013286015744165,-0.0033141551022239,-0.0038726410660684,-0.0028722473731433,-0.0008360883150765,0.0013253884840259,0.0027292166813163,0.0029035011611191,0.0019708349862701,0.0005372987936728,-0.0006679403445156,-0.0012042531635474,-0.0011274630258349,-0.0008564971416525,-0.0007974353623106,-0.0010074733620257,-0.0011562629403678,-0.0008094359029261,0.0001946047260172,0.0015627984566716,0.0026786159459276,0.0029361813049487,0.0045411441503004,0.0001075259024918,-0.0023888471998793,-0.0046810235148529,-0.0058703852193354,-0.0052567087403083,-0.0027674655685278,0.0006661615139852,0.0029840531546246,0.0062126918935604,0.0218913696564592,0.025253470851474,-0.0009520569156607,-0.040827040132864,-0.0599050402812589,-0.0125580766835425,0.0435067015524951,0.041218245049482,0.0291905081834596,0.0096160867294252,-0.0117967457355444,-0.0392499184623531,-0.0583603631763724,-0.0083785842764893,0.0464477498322956,0.0419244647866505,0.0134070528189572,-0.0095093638710654,-0.0255332131366398,-0.028368514181801,0.006725489567178,0.0162907959490495,0.0240131319961795,0.0008818816973016,-0.0151030379284933,-0.0481772363763865,0.014600115047754,0.0357402865136196,0.0132027917930339,-0.0070557868915851,-0.0101474489475362,-0.0070190300219243,-0.0057512652518197,0.0006628816979115,0.0062367826057841,0.003173854680213,-0.0013735824290595,-0.0098998899837175,-0.0017209927388135,0.0123553955857011,0.0124065078528233,0.0026980594827905,-0.0065084423958866,-0.0121110309018094,-0.016335108313309,0.0010272267924209,0.007620527995727,0.0086116788794791,0.0108402318451815,0.0094275217715602,-0.0051833232003081,-0.0181856598328339,-0.0006767239595225,-0.0175120152917793,0.0117556349629896,0.0240552414274564,0.00500944396827,-0.0151011012088495,-0.0158072269130034,-0.0057188300693563,0.0103230298143825,0.0170568339156997,0.0074144511206551,0.0006206393499211,-0.0078003972023756,-0.0208637627093951,-0.0169229335795198,0.0071985994664992,0.0157055844642492,0.0208506164934666,0.0127326942058125,-0.0027602795199399,-0.025110102956491,-0.0279753716759737,-0.0063059127800296,0.0270655348047181,0.0281742912079842,0.0073945726844809,-0.0152039859784254,-0.0332556589795211,-0.0114913968074733,0.0176377280979997,0.0243886262693637,0.0166771290095003,-0.0012251991140657,-0.0165247841570062,-0.0347199854282984,-0.004692941793598,0.0165092687388085,0.0107355867494103,0.0085669384278193,0.0033457325748121,0.0081362180133916,0.0026181091005293,-0.0031100425520963,-0.019631011859073,-0.0405272881497478,0.0094401776875041,0.0299929355376676,0.0214181761417211,-0.0020513190015119,0.0027045206666133,-0.007278717255403,-0.0120477591030871,-0.0176800754202692,-0.007833970725711,0.0223808546904379,0.0384138768463833,0.007508237228939,-0.0439594840986978,-0.0710438408338375,0.0152460488755367,0.0640527320481916,0.0522055853422006,0.0094855305029517,-0.0372446819126382,-0.0564477261586577,-0.0083411186318264,0.005736010452387,-0.0192094477778074,0.0215683695066081,0.0453342524679656,0.031162759253319,0.0018100330023058,-0.0193084450757432,-0.0438383944317122,-0.0341864241209089,0.0014463842074961,0.0126584835797983,0.0330237677861092,0.0202574188006028,0.0156286581476843,-0.0071205256936768,-0.0440859051662694,-0.0063036704651041,0.0115453543321412,0.0064979821410892,0.0034634423179038,-0.0022348338394712,-0.0049862321895878,0.0003287055055295,0.0072540771378418,0.0057684898643161,-0.0018431592255692,-0.0093420373387412,-0.0030341058016346,0.0032781619291808,0.0007212042307975,0.0206218591358837,0.0020074591032244,-0.022381106951507,-0.0390022229501865,0.0102292486752429,0.041050071127838,0.0104062551783923,-0.0200132284260301,0.0117856283210394,0.0097548086719687,-0.0063526971816247,-0.0209172715667856,-0.0221422798882316,-0.0109801188655667,0.020920369045597,0.0266024227544412,0.0122185105532662,-0.009821005591256,0.0001871676370387,0.0053930885262207,-0.0057464317167219,-0.0240781045171166,-0.014515235840147,0.0071043190385831,0.0124119177570728,0.0066671057157064,0.0013299724711647,0.0124386504770181,0.0102792345837694,-4.4737377468571274e-05,-0.0119855787201019,-0.0256165460921065,-0.0255187414763689,0.006509306073521,0.0341326072761718,0.0260949433963207,-0.0004696553625318,-0.0230763283412945,-0.0075025611386164,0.0065463538731101,-0.0039897166173106,-0.0085486630687768,-0.003864938570351,0.0043695227885636,0.0131541207022935,0.0077590188096957,-0.0031028559101032,0.0011196800359766,-0.0015722514670949,-0.0060983967951099,-0.0141613891148558,-0.0076189810509043,0.00589930701212,0.0137230667985495,0.0116667698485923,0.0045189997713394,-0.0007330007263357,-0.0027527551442339,-0.0128815433964877,-0.0126168960094358,-0.0128743626337331,0.00541371714175,0.0167577630018236,0.0182255001405304,0.0083303993937269,0.0023873535162284,-0.011518986918295,-0.0247847479646843,-0.0113985120330291,0.0017499572729771,0.0096831642613839,0.0113042857608068,0.0112945961387788,0.0052178449615117,-0.0061555677670508,-0.0060541923873562,-0.0018163226080037,-0.0053997785726334,-0.0066076785868287,-0.0014176183972599,0.0042554644854243,0.0034582593850375,-0.0002369088937466,0.006560295946654,0.0087372991477738,0.0026698505116062,-0.0056292200880527,-0.0066124937308876,-0.0076555746839645,-0.0059840860295584,-0.0045677481403881,0.0010150872196736,0.012228698472901,0.0128357057338954,0.0074900866013568,-0.0019905306530449,-0.0097648584879375,-0.0082381517751605,-0.0053832381133538,-0.0021553874015941,0.0003682103037033,0.0013102018035656,0.0028578950169778,0.0101914736533357,0.0075028438548391,0.0008605464261764,-0.0067648914006674,-0.0052741796391091,-0.0029321146983701,-0.0018163712309282,-0.0048679818073971,-0.0144650119065842,0.0063094523985914,0.0243337838755499,0.0159896644614712,0.0007589624587143,-0.0118877649166584,-0.0149551190529279,-0.0114458610693664,-0.0054871390634713,0.0004619924079061,0.0098844122355972,0.0138777563567825,0.0107498693923827,0.0033164587051576,-0.0047184793852556,-0.0100858218848163,-0.011007611279453,-0.0076033850580836,-0.0015631818653798,0.0046668287030541,0.0088009630776277,0.0094371181414008,0.0064533243111978,0.0010280603969747,-0.0047449022439397,-0.0085971767957691,-0.0089636425170763,-0.0056466763747054,4.311279685247393e-05,0.0057667521564895,0.0090921047894445,0.00852545348505,0.0042130753125793,-0.0020258749871316,-0.0074240385871366,-0.009493006896928,-0.0072160054519538,-0.0016138267573121,0.0046650742232909,0.0086099776582565,0.0083675556773835,0.0042056347636178,-0.001642007003286,-0.0061969034233639,-0.0073433108694984,-0.0049043966457953,-0.0005832352931646,0.0031546947010589,0.0045433736401567,0.0034170095473426,0.0010421237802945,-0.0008987341634571,-0.0014126332993686,-0.0006662399530021,0.0003691275014752,0.0007058687198019,-2.167565142278009e-05,-0.001408396015466,-0.0025795315544043,-0.0026889694840405,-0.00136236384781,0.0010785501694447,0.0036873014814205,0.0052465758033675,0.0047888627621914,0.0020897351657936,-0.0020786846114497,-0.0060969149472299,-0.008085116909033,-0.0067605783901349,-0.0021976462911786,0.0039415779799796,0.0089658155932023,0.0103756855955884,0.0071895861069471,0.000622596853766,-0.0063739940856018,-0.0105634828344162,-0.0100843012328523,-0.0053689811082256,0.001190371563564,0.0065846603627857,0.0087284857004949,0.0073518337712722,0.0038377324242359,0.000202865097116,-0.0021652123151966,-0.0033553656501795,-0.0049807944667126,-0.0094026672678623,-0.0183108472263053,0.0005941956578579,0.0209688292919249,0.0176036524371854,0.0081866640247996,-0.0014953969486276,-0.0075962697588134,-0.0096174004665399,-0.0103502927598117,-0.0096615341282959,0.0003793514864446,0.0067535202554781,0.0093856540207372,0.0086306118036933,0.0052094040478399,0.0003177397369895,-0.0044044029898467,-0.0072640340306153,-0.0071861542891121,-0.0042767831966208,0.0001375232336583,0.004098295342108,0.0059340120012864,0.005023188897428,0.0020297124073112,-0.0014757296376676,-0.00380465251512,-0.0039643497717141,-0.0021036257721795,0.0006190688899078,0.0026666126032189,0.0029315436259383,0.0013204553060708,-0.0011809964944469,-0.0030221072017256,-0.002957057545564,-0.0008242429317423,0.0022386349887333,0.0043572676173576,0.0040147958088519,0.0010507490102396,-0.003076397058531,-0.0060003957314702,-0.0057843465891645,-0.0021306507970434,0.0032664866631146,0.0075064518273916,0.0080452715666531,0.0041924040664368,-0.0023378247949429,-0.0082144109735785,-0.010244885230307,-0.007131638609336,-0.0002322671066479,0.0071061202879937,0.0112596911741578,0.0101540673631253,0.0042661323420317,-0.0036531855578312,-0.0099347140590875,-0.0117317421859532,-0.0083151025150462,-0.0013371951054952,0.0060150679046033,0.0105291142551987,0.0103978893866332,0.0059244835273547,-0.0007528822174633,-0.0067028508624333,-0.0094929520071748,-0.0081737097962309,-0.0035817989943798,,,,
0.0132470483970691,0.0154307218519053,0.0112990879057058,0.0026285005505343,-0.0069298314698347,-0.01340260553974,-0.0142028175052647,-0.0092163060811767,-0.0007654062320934,0.0075067962036827,0.0122674244214926,0.011861631418889,0.0068385447843867,-0.0004797881269796,-0.0070721142627051,-0.0104325378071602,-0.0094754645001576,-0.0048533713972792,0.0013830455768236,0.0066418631070211,0.0088407345637488,0.0072389327528527,0.0027065857202582,-0.0026857005395029,-0.0065790393516557,-0.0073437000052132,-0.0047675724894209,-0.0001289890239462,0.0043794366429072,0.0066459551815311,0.0056292582815503,0.0018733256305707,-0.0027431213415798,-0.0059373539400837,-0.0061652417496266,-0.0033725866606466,0.0010264317924131,0.0048933572616968,0.0064168750084007,0.0049485012781138,0.0012517186909037,-0.0029128176492253,-0.0056450312153675,-0.0057926528789281,-0.0034471628906962,0.0001768451502012,0.0033914677092932,0.0048631642875861,0.0041970722167055,0.0020093520802995,-0.0005023911064267,-0.0022271959332538,-0.002678486623189,-0.0021211828686615,-0.0012488528603492,-0.000643373485925,-0.0003883899284187,-0.0001020276959328,0.0006473203410233,0.0018657743495936,0.0029787205683102,0.0031486903683701,0.00186796471189,-0.0005939158025016,-0.0032236970977512,-0.0047783843118591,-0.0044505045392916,-0.0022832767665848,0.0008651923113046,0.0037315672561874,0.005191966379287,0.0047010131494629,0.0024748161878914,-0.0006210368689696,-0.0034176667025763,-0.004890808770046,-0.0045471714289076,-0.0026013949980966,0.0001400627764998,0.0026547751900313,0.0041571599630274,0.0043477831523286,0.0032555971248099,0.0007557275004392,-0.0038242846523975,-0.0066477472822378,-0.008391793803324,0.0060755818332822,0.0164207618662072,0.0049156007668137,-0.0178693668567971,-0.0145722955592044,-0.0028913546221465,0.0074851048647412,0.013571556785968,0.0116309676530364,0.0095368427698341,-0.0004539097299532,-0.0094312158369387,-0.0088744760278424,-0.0456145128923731,-0.0175500476526326,0.0430799019303736,0.0400200205306013,0.0126855085804616,-0.0090438359849655,-0.018222587934282,-0.0099795038927286,-0.0014075494017451,-0.0070165950959503,-0.0232272919632346,0.001795143839698,0.025984446375113,0.018518681569861,0.0059847074426742,-0.0007481758328537,-0.0059680696707244,-0.0067204120896286,-0.0122967317252796,-0.0050564383250353,-0.0050131307052715,-0.0045449032946493,0.0106743544407237,0.0088904706673191,0.0075168265970453,0.0065794567062409,0.0014379252625509,-0.0037548781366315,0.0006209502623408,-0.0013885634862843,-0.0170406071703843,-0.0306787262673321,-0.0007924759859314,0.0199320005879178,0.0264180144242834,0.0225674702326694,0.0093191273542122,-0.0090741536567076,-0.0391756706181715,-0.0174001764290528,0.0070373002489904,0.0064644785122633,0.0028676861290205,0.0046982920516184,0.000466870024926,-0.0006938583266531,0.0183797816044957,0.0197598966983241,0.0005739566908843,-0.0281548974975446,-0.0328421799828965,-0.0172930102440395,0.0114819193334879,0.029298331980373,0.0249020246439795,0.0113162546069989,-0.0121762421955003,-0.0215389779141148,-0.0073793510782572,-0.0055235196691287,0.0095053981107778,0.0024004020833052,0.0045352784506372,-0.0072795333801983,-0.0096561259726618,0.0153260244194471,0.0059613473247416,0.00460330626605,0.0023468779866743,-0.0089009028315986,-0.0080994368211892,0.0023486499394585,-0.0104291878397706,-0.0169521312561742,0.0127328880647337,0.014105669648625,0.0217480417369241,0.0037979493360463,-0.0039448904756326,-0.0021272487311022,-0.0150931851832197,-0.0301752060926597,-0.0231614584679709,0.0202561230724723,0.0309106647614462,0.0233754522002678,0.0048126691759335,-0.0038255801382,-0.0007381049106234,-0.0112443948181659,-0.0239639697354485,-0.0422250786407426,0.0024791246028077,0.0274890358245711,0.0350611517955168,0.0360886479185234,0.0004227699620531,-0.0332415824669449,-0.0170588232939388,-0.0113808897783426,-0.0260171041537242,0.0087647255438483,0.0257788605947417,0.01318559055513,-0.0013603120171368,0.0062676705973329,0.0147524086311313,-0.0067498690544563,-0.0395099187533809,-0.0265440796503908,0.0359887177147179,0.0327061501688198,-0.0037527794269572,-0.0363900131073771,-0.0022588480305584,0.025132188079244,0.0095076525487368,-0.0162676706369152,-0.0320767667352166,0.0167792542041635,0.037146813525774,0.0362383942545435,-0.0143822579549654,-0.0975041332278507,-0.0308131692515407,0.0667761526108194,0.0477166814046113,-0.0014503232054903,-0.008103616335483,-0.0107105011688211,-0.0097291733957832,-0.0044860102525209,0.008890528003095,-0.0007975100450864,-0.0247718662273612,-0.0331090082796902,0.022468890554963,0.05173171470741,0.0345283747149415,0.0029382009342311,-0.0193756074391051,-0.0383424413194488,-0.0616652758174798,-0.0253210915030835,0.0395478435000524,0.0561857546759145,0.0448344888135654,0.0112664575470637,-0.0129609508947125,-0.032169694335401,-0.0391663457583462,-0.0328928497273824,-0.0067163831033957,0.0174603511492239,0.0162163435056825,0.0577069060834911,0.0407017763127532,-0.0085854212608478,-0.0348128969121518,-0.0475817596569087,-0.0199138089173092,-0.0075324080619962,-0.0133555577631762,0.0270656359179233,0.0404842564956429,0.0382513825419865,0.0296183683255084,-0.0021967012048225,-0.0542484247630194,-0.1023770518695975,-0.0256171682484097,0.0599448452603635,0.0703752263727098,0.0346992658303724,-0.0015150377943462,-0.0227146846918266,-0.0344261974238999,-0.0225573064811168,-0.0073285637599282,-0.0087183607213239,0.0153622947128884,0.0315309323113321,0.0276093081468789,0.0110443511332889,-0.0170349456021039,-0.0288573750406691,-0.0234034458819105,-0.016028646024048,0.0098652397867839,0.0207713763904522,0.0185973526250948,0.0135782767314349,0.001122562946501,-0.0046278544529001,-0.0126974941535947,-0.0109079296564505,-0.0042125399464597,-0.0058713672146325,-0.0070527673991266,0.0020413728628225,0.0064625802960989,0.0188185447818769,0.016288558593319,0.0073427060948963,-0.0008857190138884,-0.0154927505559459,-0.028913820165132,-0.0149466928262017,0.0024707637848203,0.0122497357071258,0.0134043490953713,0.0064340936962407,0.0054682647324392,0.0108921047617686,0.0060164881183068,-0.0056294157124307,-0.0143978670524274,-0.0178934477503937,-0.0206476222583584,-0.0104441254645844,0.0216236323585276,0.0274031072332462,0.018524011760975,0.0063043279268621,-0.0056922229067082,-0.0118772713952617,-0.0149383604502168,-0.0184251128455112,-0.0067726487805682,0.0035445750657833,0.0108873744245669,0.0139832207563588,0.0123415749744709,0.0066737175439458,-0.0010478618609757,-0.0080977868486473,-0.0119561582942305,-0.0112935626136928,-0.0064993663071848,0.0004954783314879,0.0069962835581447,0.0105746145468456,0.0099613826183696,0.0055096953877269,-0.0009313749908544,-0.0067291251514099,-0.0095423972007163,-0.0083203976374949,-0.0037449659269405,0.0021209216105842,0.006796801878152,0.0084577155483474,0.0066077711728448,0.0021319988306115,-0.0031559910758711,-0.0071961317402929,-0.0083704742296692,-0.0060673844321394,-0.0009915445356078,0.0049442210355044,0.0092348254836765,0.0097802797324934,0.0058970506232425,-0.0011396468236754,-0.0083981011751557,-0.0124679971126152,-0.0110759848151714,-0.0043586507025284,0.0049393000097076,0.0125808294189177,0.014814789434365,0.0102681122843694,0.0007784483401413,-0.0093335232374349,-0.015290413405726,-0.0142224248502356,-0.0066476895803834,0.0037615849015647,0.0120461495325945,0.0144568723791655,0.010236663723836,0.001797843947468,-0.0066712489144419,-0.0113367625361455,-0.0104845061852085,-0.0051158055101255,0.0017967923312382,0.0069168224928457,0.0081600451644624,0.0055280508920221,0.000834389257572,-0.003401551340364,-0.0052400549332672,-0.0041579765207587,-0.0011262616744339,0.0020123295351556,0.0035325709437563,0.002712595574147,0.0001788598108145,-0.0024791409984326,-0.0036217780861991,-0.0024876150654069,0.0003829587242741,0.0034451633438698,0.0049774200354185,0.0039852091729291,0.000727053260812,-0.0033735078541937,-0.0063675961077559,-0.006673169225693,-0.0038313189049719,0.0011936457425776,0.0063146621014079,0.0091490678753732,0.0080865544826781,0.0031541203570714,-0.0037783155304003,-0.0096766812885536,-0.0116908059134211,-0.0085487277403814,-0.0012877377781382,0.0070741230731335,0.012808446545421,0.0131421094129437,0.0075936411798706,-0.0016432326613365,-0.0105356746620524,-0.0149967196813406,-0.0128347158684089,-0.0048940546560503,0.0052569527314207,0.0130008826501027,0.0148807279126741,0.0102187142607653,0.0013432043761784,-0.0076343881363826,-0.0128191049168747,-0.012292372746493,-0.0068030406294265,0.0008512070758024,0.0073188300354603,0.0102306918832661,0.0090252333544948,0.0048026947075011,-0.0004880075145318,-0.0049585346490057,-0.007357566414192,-0.0072352557755377,-0.004864476127636,-0.0010878811192029,0.0028834392317041,0.0057756043413678,0.0066487677975739,0.0052443306569205,0.0021019050996386,-0.0016379004978452,-0.0046674871359698,-0.005989732718816,-0.0052415426667399,-0.0027630158158752,0.0005649589696221,0.0036212273559229,0.0053888572613971,0.0052702791232969,0.0032975241529855,0.0001545173547044,-0.0030332296523151,-0.005093788366148,-0.0052485607074741,-0.0034236537835851,-0.0003028663997939,0.0029129736825862,0.0049637882542545,0.0050349789505458,0.0031018951247777,-4.330886099514988e-05,-0.0031094471775147,-0.0048418444492683,-0.0045489160789269,-0.0023942519753008,0.000674632891828,0.0033385503696664,0.0044872256306657,0.0037077136725848,0.0014479721669207,-0.0012252500785352,-0.0031476514087282,-0.0035895147504853,-0.0025415128706261,-0.0006426389731329,0.0011802901691195,0.0021712378391392,0.0020859577662982,0.0012565657973307,0.0003400001653754,-0.0001261336153467,-9.071550425702877e-05,-2.92764511069575e-06,-0.000412264919061,-0.0014266598138074,-0.0024719422855296,-0.0026080362882523,-0.001224561677037,0.0013846909292297,0.004012290499505,0.0051515061021187,0.0038778812061827,0.0004728513161959,-0.0035871671106624,-0.0063077040834079,-0.0061966973204937,-0.0031035594801329,0.0015966391275061,0.0056333973177393,0.0070015148818263,0.0050363983602644,0.0007827035556414,,,
-0.0079349189325103,-0.0036255955334912,0.002694936200296,0.0081461756065337,0.0101241716535008,0.0075564834643546,0.0014499423620962,-0.0055399433761932,-0.0103086107927132,-0.010702933997773,-0.0064802493200435,0.0005935151676578,0.007526488513716,0.0113958371030134,0.0105801212833333,0.0054097763767605,-0.0020068969143769,-0.0086665056231906,-0.0118737171896758,-0.0102953705168205,-0.0044952756450464,0.0032330387510447,0.0097122967397758,0.0121614892231518,0.0094409867035103,0.0026806078487105,-0.0051236934950638,-0.0104735461309163,-0.0110526122135847,-0.0068324439836248,1.0455944821143378e-05,0.0062851070048162,0.0093690237431428,0.0083188808511307,0.0040333425514013,-0.0014157432417558,-0.0057905317607264,-0.0075417630063629,-0.0062549571799815,-0.0026570974192006,0.0017383208088501,0.0052188960671384,0.0065069510317642,0.0052179408393641,0.0019708767693147,-0.001891347851315,-0.0048576402494969,-0.0058491021122902,-0.0046108210410144,-0.0017423205378085,0.0016087884748299,0.0042200114295256,0.0052300067947238,0.0043957284077529,0.0021179682717956,-0.0007462185311403,-0.0032108169705097,-0.0045097654413669,-0.0043362974883077,-0.0028863828954763,-0.0007105992856224,0.0015345099581657,0.0033062613321631,0.0042660061464002,0.0042330334157845,0.0031115162587188,0.0009330819333495,-0.0019644435121598,-0.0047931859319159,-0.0064411281910728,-0.0059370034193416,-0.0030415419954383,0.0014164081234383,0.0057464133323508,0.0081217420505441,0.0074708537847315,0.0040464222205822,-0.0006725913335391,-0.0047400329040556,-0.0067903320581051,-0.0068265776866298,-0.0063195073346553,-0.0075139784375655,-0.0121362205466028,0.0140392096292566,0.0312083068283082,0.0237744189526056,0.0063097112810013,-0.0135448797626677,-0.0284968214873693,-0.0490135468765031,-0.0266548392724749,0.0341574569228636,0.0485603170738362,0.0372294160793277,0.0112107336294371,-0.0144930830068717,-0.0379635039581632,-0.0414117675338025,-0.0160105673383006,0.0093242606907219,0.0326652268715334,0.0269393767922067,0.0157786543832643,0.0036779884835246,-0.0096655466840232,-0.0161437199177508,-0.0320402582607378,-0.0228862429398072,0.0157485316458627,0.0221448209638745,0.0157688923557453,0.0080195270603728,-0.0004220987119333,-0.0053490639321884,-0.0032209561368471,-0.004108631081036,-0.00293477427112,-0.0059086412599094,-0.0133618490555707,-0.0146558636559247,0.0174304385036601,0.0210455332534955,0.0143592639689152,0.0037121581203007,-0.0041455493191614,-0.0065066955923652,-0.0119125025946978,-0.0149956203386511,-0.0163855509066654,-0.007145568949325,0.0258311104867189,0.029269248574426,0.0152793926937835,-0.0042567587385364,-0.0202878634466383,-0.017645036627535,-0.0082644780358481,-0.0060828515018048,0.0119035080091875,0.0156228603538938,0.0089089415145915,0.0033384810196433,-0.0086690589390051,-0.00435582058764,-0.0141598016096376,-0.0095011762684664,0.0117094060686103,0.0095563359554271,0.0068504133235053,0.0079377713109712,-0.0051013379001902,-0.0018939301243125,-0.0127381125164608,-0.0110246114388448,0.0034647270579643,0.0017948798945658,0.0034839166146754,0.0045199383251265,0.008032838540403,0.0145934275423853,0.0080696012009437,-0.0223201669634096,-0.0223061032857534,-0.0080667246406226,0.0035608385584029,0.0155154305173194,0.0109457026245425,0.0032216342240524,-0.0020330450732622,0.0066228324967944,-0.0031779547000542,-0.0178701116058675,-0.0163362729745131,0.0238333998586258,0.0122516323639254,-0.020912235880955,-0.0056535428466374,0.0152724364614183,0.0226543035428281,-0.0016986013257203,-0.0357478296513669,-0.0212578120574943,0.0126332307283241,0.0234964083569457,0.0200231846758454,0.0183663710608734,-0.0036856874641377,-0.0445563693882206,-0.0424531611181074,0.0186537847818434,0.0115414785168946,0.0127970729645828,0.0273558736709443,0.0231382559016439,0.013503711048676,-0.0249007171129872,-0.0747941109221722,-0.0397350832951453,0.0375942119314755,0.0616341696075898,0.0376428936404325,-0.0056563388145661,-0.0289263563873848,-0.0534738185530028,-0.0128359359666513,0.0336518756069587,0.0362329187283873,0.0053825743271,-0.0181685152643873,-0.0133099451495437,-0.0112342890674787,-0.0047262611534714,0.0120406174740608,0.011448600701813,0.0046003874548876,0.0011757931385836,0.0066269797034374,-0.0082128019031701,-0.0174089047080691,-0.0102860895455878,0.0094959088182043,0.0040765428868391,0.0108831381730458,0.0032802427268474,0.0001713969045705,-0.0096643638395357,-0.001462788937264,0.0097870762519143,-0.0014380998078131,-0.0094968138912964,-0.0042682546095275,-0.006518799432833,0.0101951177822369,0.0132049338548667,0.0083813447280026,-0.0062502638445031,-0.0208862026047262,-0.0131504610162327,0.0068280106314259,0.0166398632916617,0.0238706759789637,0.0175302120328263,-0.0076524180134914,-0.0457843404113368,-0.0757050318857282,0.0265244550181166,0.0680171968733476,0.0445267125108297,0.0026823972776295,-0.0205019602412308,-0.0267397033723239,-0.0291715293571543,-0.0153203551254289,-0.005114704966542,0.0169481547355778,0.0342855019961682,0.0250989586717359,-0.005531822478894,-0.0113099162805431,-0.0042984222236934,-0.0180742425594565,-0.0150854718142376,-0.0016205766673995,0.005773793877762,0.0071446563582801,0.0123020235588789,0.0111223623630402,0.0026789665449006,0.0027506817488443,-0.0069074241227404,-0.0162868349905954,-0.0140608283723843,-0.0066640861350475,0.0034903668443015,0.0150893489435839,0.0143785202558372,0.0126473587288112,0.0053816373712607,-0.0067503994538117,-0.024308045922004,-0.0248513966816359,0.0015828260127104,0.0180790854298772,0.0165475608568813,0.0073313931546279,-0.0064287397143413,0.001767020248861,-0.0027928540764687,-0.0104699016832345,-0.0049598667699574,-0.0007427315099964,0.0026070472010951,0.0022485218435154,0.005621334512949,0.0102964164071509,0.0038946303484751,-0.0102555119319977,-0.0123180071840186,-0.0065301306427078,0.0007770891395744,0.0062014125618267,0.0110792041312372,0.007983676855003,0.0016928594890935,-0.005896181261772,-0.0064236393544908,-0.0065238514226118,-0.0069205986284947,-0.0057681301887063,0.0040551422728062,0.011886050768531,0.0099211011157657,0.008998477491746,0.0051118365584379,-0.0088412781069908,-0.0170908792507295,-0.0135188220108009,-0.0034492534283546,0.0033335396939671,0.0090498509884085,0.0118494303503998,0.0108359991821223,0.0018229031369835,-0.0018605370690263,-0.0069987264951336,-0.0102133816492455,-0.0094824230165979,-0.0049903547460945,0.0037111529306764,0.0088567017828404,0.0082850409001847,0.0063807657409222,0.0017724912085472,-0.0032920656102387,-0.0065354147623225,-0.0066491537630236,-0.0037967863447379,0.0005312875627564,0.0042204513431469,0.0055035971747655,0.0038012126329574,4.291607427111656e-05,-0.0037392460345061,-0.0054250676661085,-0.0039532632931662,2.4459816265512408e-05,0.004398183635274,0.0066876224417407,0.0078808581488995,0.0007723042298842,-0.0051091150430576,-0.0094033976646954,-0.0097684179573956,-0.005566446376005,0.0017079235429082,0.0089812279126218,0.0129059636636005,0.0113783510407859,0.0046171697055575,-0.0047317408503339,-0.0126312399287875,-0.0154499156401367,-0.0116881126666215,-0.0027598544244783,0.0075861158618636,0.0149299939647476,0.0161297713412534,0.010666158938078,0.0008271485859337,-0.0092900230716145,-0.0155064985874839,-0.0153084073579625,-0.008901281260853,0.000890095027487,0.0098756469061063,0.0143702032460834,0.0128034092355178,0.0062966562769013,-0.0020305226447441,-0.0086089931943383,-0.0110229428253832,-0.0089235044682169,-0.0039047267057405,0.0015006501714485,0.0051406340496797,0.0061720850495629,0.005127144473806,0.0031931259909607,0.0012962136394106,-0.0003432431395106,-0.0019545798073385,-0.0036086350708481,-0.0048401035935602,-0.0048281546212713,-0.002993498525898,0.0004321665861339,0.0042754322147375,0.0068616251589944,0.0068248532257751,0.003864435677495,-0.0009743615093098,-0.0056790850759526,-0.0081416476275275,-0.0071033288933499,-0.0027446084910047,0.0032973480575463,0.0084238526834628,0.0098452369639176,0.0053834056924944,-0.005806411074755,-0.0225296895784084,0.002836372689786,0.011731169117093,0.0081767369617583,0.0001878562915443,-0.0027170210688265,-0.0023348007625454,-0.0085327644433864,-0.0167876425398674,-0.0075335421895704,0.0279177708171921,0.0223435955238952,0.0070548695176743,-0.0059880999022047,-0.0171361216284408,-0.0161686353376847,-0.0111778393670719,-0.0009861935340271,0.0050369682041899,0.0131830629146372,0.0168388421230399,0.0120118458626763,0.0019926477814766,-0.0086412134861187,-0.0155684498313465,-0.0161738258006644,-0.0103773996234114,-0.0005485446126265,0.0094463021903666,0.01571355573934,0.0158026565750235,0.0096536078384742,-0.0003412165289039,-0.0102270789217453,-0.0160342431385611,-0.0153925865365055,-0.0085422459539175,0.001718047225165,0.0111653613518749,0.0159180498555733,0.0140840845299341,0.0065641180267472,-0.0033639176874312,-0.0115022556383615,-0.0145711887158259,-0.0115886793633078,-0.0041757836630701,0.0043101571537366,0.0103532615267345,0.0117910281857375,0.0085749631713253,0.0025243813906453,-0.0036769843448687,-0.0076899873967499,-0.0083934633716655,-0.006117488872154,-0.0022401779593348,0.001584737822308,0.004164212064827,0.0051144160291115,0.0047141160052041,0.0034612884053522,0.0016946626178128,-0.0004573422102151,-0.002823696592901,-0.0049115612801734,-0.0059083176500799,-0.0050536828642449,-0.002169602999126,0.002017381465844,0.0060196347773538,0.0081745719999278,0.0073893714435858,0.003677205482134,-0.0017611651182738,-0.0069362521645332,-0.0097942200497573,-0.0090232995573653,-0.0046614342182561,0.0017728723751508,0.0077822055288939,0.0108975722522615,0.0097604791009856,0.0047544038117022,-0.0021304362428896,-0.0081346247231033,-0.0108817539869349,-0.0093444748118257,-0.0042345883722967,0.0023218804793991,0.0076819633907174,0.009786466202164,0.0079966310973315,0.0032952320071557,-0.0022286245575224,-0.0063419069127949,-0.0076072954131183,-0.0058881198575618,-0.0022540632985533,0.0016019249684455,0.0041443325223202,0.0046325972277741,0.0033469139288587,0.0013103400474106,-0.0003457062320943,,,,
-0.0073645822143736,-0.0090752406258965,-0.0078108370507759,-0.0041295399763829,0.0006980726418558,0.0051332457996854,0.0078293702867352,0.0079866767598299,0.0055640909514949,0.0013297114929754,-0.0033102829378806,-0.0067523265250269,-0.0078064457927708,-0.0061917320878518,-0.002620539481793,0.0015769352101174,0.0050324730285068,0.0067902871701816,0.0064776460947924,0.0042680518580121,0.0007757031564525,-0.0030584433932122,-0.006123540821832,-0.00739331236739,-0.0062671219409781,-0.0028819903157074,0.0017826802925092,0.006137941386996,0.0085321356683614,0.0079121514517657,0.0043080576232045,-0.0010935438290601,-0.0063429525679821,-0.0094421342319446,-0.009110781069511,-0.0053173190189069,0.0006367397759415,0.0065464083749829,0.0101245050448106,0.0099131499657929,0.0059054707267418,-0.0004086062684093,-0.0066123475965249,-0.0103138236966485,-0.0100876323825183,-0.0060350001005306,0.0002520442348131,0.006315294450718,0.0098131065097736,0.0094701937353248,0.0055860489816696,-0.0001354715083158,-0.0053663730363828,-0.0081786114103356,-0.0078179416468865,-0.0048617581726322,-0.0007353738691019,0.0030757434942155,0.0056291314863696,0.0066205717681689,0.0060146217496775,0.0035699032281667,-0.0013219721644434,-0.009272658220492,-0.0152349348707658,0.0041923348547446,0.0044985614561003,0.0063115122579915,0.008715128396703,0.00191059672132,-0.0070181569411255,-0.0332318923068122,-0.0048999971985816,0.0238425844311785,0.0252841354786474,0.017490588428858,0.0106655795285142,-0.0065663250817877,-0.0329004048662636,-0.0963714985341712,-0.0137476140111379,0.0844295127420332,0.078375079165244,0.0299019331628641,-0.0241158359792729,-0.0518633289980357,-0.0507296831795211,-0.0231245145482414,0.018194826507114,0.0407837692587585,0.0313763256708043,-0.010981986283834,-0.0217306741865707,0.0139923180397368,0.0099738668862808,-0.0026360014555495,-0.0144847035089555,-0.0185172719910288,-0.0109498336436045,0.0041271868886872,0.0158524253652101,0.015790360057822,0.0070526669213391,0.0034192195665941,0.0023391587685265,-0.0146528700842597,-0.0082742002839529,-0.0080799660025279,-0.0364833395442932,-0.0074690801655458,0.0536677800647221,0.0657889042044494,0.0210115325339254,-0.0578573731624242,-0.1199038224201464,0.0219129542150676,0.0602236131525761,0.0300880756207431,0.0117739079526777,-0.0059274593561194,-0.0084449275522257,-0.0118271470017364,-0.0279663604551781,-0.0329968072159035,0.0084051520450316,0.0623011141472856,0.045257750100542,-0.0030070726057026,-0.0436776271392567,-0.0719558102072268,-0.0054907324537046,0.0398807190265499,0.0338519103848557,0.0182962694342874,0.0086770620534664,-0.0132638648330407,-0.0181449141679178,-0.0195940949266492,-0.0263131030286242,-0.0052450788832513,0.0276965365441325,0.0295098260666717,0.0215100626391704,0.001555480522652,-0.0178522210752813,-0.0147316534655349,-0.0149119867939324,-0.0176804966089539,-0.0050994350816945,0.0037737134692999,0.0306865345948733,0.03208591701381,0.0057084136922555,-0.0127399956317192,-0.0141354831964285,-0.0193766381195952,-0.020227377826058,-0.0137550728427163,0.0208583025889242,0.0283200578066923,0.0097966556497451,-0.0072184714745176,0.0108740557188835,0.0135539617109383,-0.012947022719087,-0.0368166769209232,-0.0417123868001063,0.0128185657191815,0.0340869718982987,0.0401054849076015,0.0173475177417141,-0.0154933356903204,-0.0526820508758701,-0.0006352107019828,0.0274957733963368,0.0019278531376707,-0.0236992736288588,0.0039700090865234,0.0047148071318294,0.0058040615517442,0.0083290351779904,0.0066771844747387,-0.0017415635004612,-0.0024368011172882,0.0030445679794538,-0.0073479146961124,-0.028975067591514,-0.0296591818325371,0.0206368305712153,0.047184726942623,0.0390896418861757,0.012447685541867,-0.0374679358041514,-0.0662372118080553,-0.0263730627675106,0.0221107198313253,0.034658007034891,0.0249308768925345,0.0132132082968264,0.0243638333897492,-0.0127604494835191,-0.0697432012784152,-0.043878001437917,0.0234121099472057,0.0648802219704812,0.0326000986013114,-0.0206429023745549,-0.0248987316771022,-0.0453600787084739,0.0107174826256156,0.0500156860025602,0.0184658705667292,-0.0351608588972129,-0.010161581019703,0.0058860696004437,-0.0081476129821711,-0.0106128305210509,0.0076595200002971,0.0044365760534955,0.0203866762941186,0.0309086940336896,0.0062467294435102,-0.0432664168457277,-0.0766007588975919,0.0072712681387951,0.067826260236103,0.0298751552311414,-0.0029511079342135,-0.0099348054409052,-0.0249469156584955,-0.008347912656113,0.0028455284211711,-4.987073742313872e-06,-0.00634496302633,0.0053443459951365,0.0223261692913048,0.0095076746358834,-0.0031136205025588,-0.0164021248429758,-0.0225747050437618,0.0013088114363229,0.0146826569253565,0.0107679532927009,-0.0002953568393418,0.0021265272269435,-0.0062026174215893,0.0020728838312797,-0.0090071879451106,-0.0081174757786517,0.0091566692292512,0.0080489765758475,-0.002502031523775,0.0078877790666771,0.0051390916586083,-0.0103491432531025,-0.0335429132931263,0.0048915912867467,0.0240256211620183,0.0212638297191984,0.0030810115013951,-0.0272075577485658,-0.0044925985904409,0.0179881982536169,-0.0052503320276781,-0.0214522653189831,-0.0086201645517818,0.0110305708471004,0.0167169295667216,0.0184819013758593,-0.0042607607278382,-0.0002562074621216,-0.0035025054628517,-0.0209729282132411,-0.0181030094581435,0.0008511347567362,0.0113954909630745,0.0163350788454628,0.0087687810109879,0.0002240815909806,0.007362809659724,0.0029506332716195,-0.0085352245412339,-0.0322308547999252,-0.0334024096691124,0.0203671142283593,0.0472140551316271,0.0269690863614496,-0.0104281926520037,-0.0440342401063679,-0.0168750270377261,0.0121259402347069,0.0185060083713807,0.018255822371924,0.0004168073650167,-0.0186503515003369,-0.0179060972628621,0.0021557821600382,0.010849560659155,0.0068998338536198,-0.0054979294230515,-0.0061095743067641,0.0056722196404972,0.0129410154054973,0.0099876050609997,-0.0032459111702825,-0.0200999593007268,-0.0156016520812559,0.0050129160893141,0.0051951684667946,-0.006710058457589,0.0002171556467932,0.0164015487442038,0.0187855157104755,0.0127339074861149,-0.0032211912744184,-0.0169739138945359,-0.0250639070253785,-0.0396006168351026,0.000332494278084,0.0329693555510606,0.036592842066601,0.0166134654157482,0.0012801218726838,-0.0081435639224366,-0.0197770790987324,-0.0249684583136171,-0.0208359706769825,0.002918639790877,0.0193982053193538,0.0179605668951682,0.0186867127009473,0.0110329228592977,-0.0082512257283766,-0.0226302723909987,-0.0234518100927893,0.0009568424577639,0.0100789009720338,0.0061051148642392,0.0042997872949352,0.0072517787719297,0.0081075174809958,0.0026843727634864,-0.010648955758064,-0.0258228644133622,-0.0030184458321562,0.0146438672595411,0.0099625171656598,0.0067674532067395,0.0022057979116214,-0.0045046252429273,-0.0086973019701627,-0.0073316596322604,-0.0013823007921089,0.0075978468724428,0.0075444567995394,0.0020284440581268,-0.0078667159300829,-0.0049131049062221,0.0055168635329465,0.0027110593807664,-0.0073120116446081,0.0049601500831762,0.0031371800823588,-0.001496396498605,0.0027146993165529,0.0008206279621098,-0.0037574885319527,-0.0086268698387752,-0.0126344466674415,-0.0008823844015933,0.0221535135513205,0.022277473978659,0.003980294454311,-0.0117268349953671,-0.0197997339857436,-0.0172359992539635,-0.0026084497331501,0.0104869972646839,0.008164968443101,-0.0006774936289886,0.0219299851620013,0.0186822466990402,-0.0259496125432136,-0.0023631835314041,-0.0111168319136323,-0.0266183000436716,0.0019227948571809,0.0242427652129777,0.0170724880851336,0.0046677373623519,-0.0032385771094848,-0.0076747106809774,-0.0065550658677269,-0.0031514977647898,-0.004410328375038,-0.0011441299469555,0.003983387225779,0.0036755420755798,0.0048526545491876,0.0028133508515613,-0.0019817214502971,-0.0008351361019983,-0.0017305295669107,-0.0028799169601506,-0.0030494021417098,-0.0018130183752198,0.0029219538685151,0.0025764155020526,0.0033735470553862,0.0020997386274852,0.0016869911529461,-0.0038899541481069,-0.0053851241698265,-0.0042566536823136,-0.0008246334046787,0.0032732547260195,0.005887673059132,0.0055221331632514,0.0022079422529498,-0.0024186586475137,-0.0059293845434747,-0.006414074127897,-0.0035835149350733,0.000993150628535,0.0047387759099496,0.008063637524003,0.0030933874031534,-0.00111753591103,-0.0045076840984688,-0.0050495901199587,-0.0024839606249996,0.0015329829772764,0.0044434843289355,0.0043318945442438,0.0010914804292571,-0.0034573230528753,-0.0041019827831087,-0.0063914474990248,-0.002915977913036,0.0016400494366119,0.0091368692210834,0.0125483611105326,0.0070289898899385,-0.0025729800551469,-0.0127739293110639,-0.0155884732275764,-0.0099448797692709,-0.0001982473208397,0.0096142061666092,0.0151103125737694,0.0137244703863739,0.0060525060691007,-0.0043482305402917,-0.0126118110601541,-0.0148506754862084,-0.0099905168810645,-0.0003271231551241,0.0094171006572798,0.0140990799277471,0.0103541692368679,-0.0018869647683924,-0.0141703570210125,-0.0009474296106592,0.0021474621108745,0.0001212564027563,0.0002939553708964,0.0013990119174424,-0.0030181218829567,-0.009486668843515,0.010372871987103,0.0088601416416378,-0.0016422495655561,-0.006402996665584,-0.0076263610138396,-0.0021186446760668,0.0036045479833912,0.0129082306558285,0.0079315333103637,-0.0025749483601174,-0.0081743224223794,-0.0115227995176698,-0.0103458937835458,-0.0026993015764159,0.0121945637374179,0.0214495534056585,0.0172189310879165,-0.0114304635915346,-0.0449829769123468,0.0062826634813659,0.0256320478749818,0.009078769349112,-0.0075749514046427,-0.0124444013270462,-0.0075065931866625,0.0012050650136124,0.008474992993592,0.0102058632213011,0.000511627787542,-0.0081470836845316,0.0050152006292465,0.0065744645488171,-0.0022618501419928,-0.010027329852145,-0.0117531014882157,-0.0092727759098106,-0.0014608985645097,0.0085091235113144,0.0177991001856652,0.0308722333941566,0.0269049034851894,0.0021113543748151,-0.0607745253150302,-0.1172836203028066,0.0112334711675549,0.0819757943745713,0.0724948048103259,0.0321984211769112,-0.0101724706277778,-0.0555590564586413,-0.0258796661096076
-0.0085790707779317,-0.0006390416006575,0.0064932463009335,0.010874481373426,0.0117539870438759,0.0093400105001769,0.0044348744791858,-0.0017685072628006,-0.0077323485304983,-0.0116987636014927,-0.0121121941320479,-0.0082981825366181,-0.0010570024333802,0.0072678791592117,0.0134819835563769,0.0148226520659321,0.0102835758284177,0.0013046714563124,-0.0086166541518194,-0.0153301005933639,-0.0158645121086442,-0.0098352888283652,0.0002773344490559,0.0101745642913365,0.015661846718737,0.0145412147972202,0.0075539734920264,-0.0020707177778966,-0.0101915877982464,-0.0136364548190335,-0.0114817033754346,-0.005198709778708,0.0022710158823173,0.0079546766767916,0.0100699326534619,0.0085017787559368,0.0044564088011227,-0.0003510419553792,-0.0044459632520862,-0.0069243088605027,-0.0073801498407595,-0.0057393719814186,-0.00228745238329,0.0021332746453062,0.0060874416837721,0.0079713950307868,0.0068057757027935,0.0028961027666552,-0.0021571470619719,-0.0061931528986485,-0.0075480793222654,-0.0058193926950601,-0.001954002844959,0.0023004093175183,0.0052312199641287,0.0058670068370742,0.0042687436115544,0.0013455361045351,-0.001649650403077,-0.0036690710202173,-0.0042141880486866,-0.0033710804490667,-0.0016097240882385,0.0004778878337615,0.0023471573355162,0.0035416492121925,0.0036936608096698,0.0026042221188386,0.0004214815648788,-0.0022194630444992,-0.004292439672916,-0.0047825904077403,-0.0032290121618001,-8.578506114517382e-05,0.003359556253819,0.0055296818461941,0.0053176655132978,0.0026799833607734,-0.0012628306574316,-0.0047099117073184,-0.0060384127999621,-0.004613272309903,-0.0011256364019586,0.0027379050934439,0.0051492966151824,0.0050726480024299,0.0027574689699684,-0.000487602334594,-0.0030751312246784,-0.0039700158926119,-0.0030917360015592,-0.0011493827582571,0.0008625127809622,0.0021514286059955,0.0023763873593824,0.001654548442598,0.0004293041345094,-0.0007234553811993,-0.0013232142932024,-0.0011914551824666,-0.0005268821545664,0.0002229546278904,0.0006287393020056,0.0005158993231827,3.271749824530525e-05,-0.0004638333913007,-0.0006192464430437,-0.0002833846498967,0.0003837067851409,0.0009669624758389,0.0010258457646458,0.0004009396146152,-0.0006066813084587,-0.001362429502002,-0.0013073936171252,-0.0003799165222401,0.0008804602687507,0.0016586743935273,0.0014020204075948,0.0001924304413518,-0.0012919602932135,-0.002176845624819,-0.0018858221314264,-0.0004503794831029,0.0014938253227797,0.0029876200516598,0.0031779891463974,0.0017415828268418,-0.0008662809613437,-0.003495767374454,-0.0047776336609555,-0.0038336867954731,-0.0008540088209254,0.0028495036187571,0.0054426384931213,0.0055407287075527,0.0030003967576565,-0.0009478909926561,-0.0043306025613412,-0.005492024377502,-0.0039996489461377,-0.0008706905863241,0.0020437612292042,0.0031878726783776,0.0022648522374825,0.0003954818485155,-0.0007181004837461,-0.0002088653181399,0.0032347219746645,0.0082857906360521,-0.0024556964300338,-0.0071768077412068,-0.0126851213945285,-0.0014412351228398,0.0074094324115505,-0.0148055579838544,0.0101415309132998,0.020469517229518,0.0157115436476431,0.004594104346716,-0.014690870030169,-0.0348870153000262,-0.0126834812488453,-0.0144468676713282,0.0418576958717927,0.0417867292244989,0.0058633579096286,-0.0434886603884839,-0.043371395450415,0.0045095506226162,0.0365543549083514,0.034890505583823,0.0186564556953231,-0.0100805637662095,-0.0534049755657015,-0.0604442119659118,0.0079942677159648,0.0508724101685215,0.0409375634272163,0.016115708509658,-0.004728870338117,-0.0193730036767073,-0.0247312286262878,-0.0148462031245535,-0.0033691378094873,0.002720583953649,0.0055702861305184,0.0115346630472497,0.0155424479660003,0.0033435544967498,-0.00050092619971,-0.001969067028698,-0.0081402136240668,-0.0130895566391039,-0.0073937878481843,0.0014813561829828,0.0087067437137514,0.0131845939378432,0.0024508916701101,-0.0071352187587005,-0.011510314418352,0.0002005415755852,0.0129939299652329,0.0070056824689022,-0.0052618466698268,-0.0113690016862856,-0.006420089999389,0.0132048661674533,0.0080258801063516,-0.0155717404422207,-0.0094837253771596,0.0199869765846328,0.0053202407183577,-0.0148144694004009,0.0027446915800306,0.0006086549873183,-0.00189595752139,0.0061054484676131,0.0106851339275046,-0.0038930969842089,-0.0195634083208768,0.0030099332858365,-0.0006754002491738,-0.0017805676619071,0.0048948622884553,0.0015518367673889,0.0094599846926154,0.0165835992729631,0.0014765773924647,-0.0322130408438635,-0.0330829619676449,0.0244898323259939,0.0384442572000282,0.0096824332576244,-0.0224339651542851,-0.0445462819924457,-0.0068617701965996,0.0127812707429604,0.0525128381001393,0.0433879921051028,-0.0084166432662142,-0.048839410506869,-0.0582577013510523,-0.0270298841489605,0.0441329005693363,0.0326180318687481,0.0229406596870144,0.0049754124658233,0.0035516292833951,-0.0071706961266339,-0.0095022257287314,-0.0242698594973685,-0.0365606874386725,0.0049235424128353,0.0043891326960651,0.0342232198452428,0.0409940143936766,0.0048199931062778,-0.0228906022664488,-0.0167985538115419,-0.0175794401608394,-0.0042618173394031,0.0063732675733211,-0.0069130087065225,0.0009385394800492,0.0104950721289693,0.00925361493629,0.0196919002798224,0.0116535925175715,-0.010656989297785,-0.0223291681892543,-0.0260430165284391,-0.0171465909786086,0.0167724870957735,0.0309856887399654,0.0126912275267768,-0.0094796926658793,0.0039638552096015,0.0106639870103176,-0.0029590353526957,-0.0325504154485907,-0.0368366752366798,0.0104005651303449,0.035033634483718,0.0292081528874367,0.0068207308934603,-0.0071055280770621,-0.0198399938045525,-0.0187190244353422,-0.0071883867772411,-0.0004649668418692,0.0038006333264973,0.0111985532638479,0.011235335093034,0.0124692552240419,0.010822591181847,-0.0021770931272153,-0.0226726781703369,-0.0353026136617365,-0.013479413367163,0.0259284180502233,0.0278415337007464,0.0110938137469856,-0.0033336479461335,-0.0025779870587191,-0.0096861746275073,-0.0117032597830971,-0.001767293865829,-0.0021902781985309,0.0051582467650534,0.0048232152436008,0.00127978992345,0.0032843422817175,-0.0011677692964536,0.0017534691688636,-0.0013389909310091,-0.0004032531404656,-6.0302832316579e-06,-0.0054904607698912,-0.0044562093427684,-0.0008860541828666,0.002998783000418,0.0097541718453947,0.0057028701319079,0.0006124552765962,-0.0066434750379215,-0.0086908363846091,-0.0058228098848657,-0.0023871299714163,0.005340768149144,0.0097520325084534,0.0082481694193217,0.0047094479883285,-0.0027781605209553,-0.0094023890859182,-0.0124507388322716,-0.0078228184674492,-0.0002453441155915,0.0090688693804441,0.0132934635421469,0.0082268281114081,0.0026259482744816,-0.0032164333685311,-0.007867151658228,-0.0095935693218161,-0.0070525620838895,-0.0020456285608375,0.0054040736470218,0.0068073459764145,0.002965271816926,0.0021792310498324,0.0041418083391991,0.0042244959521435,-0.0013561082840131,-0.0070634783459442,-0.0095661314433088,-0.0031901775601122,0.000870530994081,0.0003268408270014,0.0017334617378707,0.0031786276388331,0.0073204343178742,0.0076486709358934,0.0039019373172384,-0.0026420701152542,-0.0095536497736489,-0.0115817916618401,-0.0044058089858778,-0.0022050395688291,0.0028841654732235,0.005449139088292,0.0097447868099626,0.0092843966453888,0.0045749086208308,-0.0021183989948739,-0.0078510836203291,-0.0103184704912061,-0.0087885334731473,-0.0042076397259201,0.0014751527824722,0.0062669205854739,0.0088099694544013,0.0085667304636692,0.0057056434543388,0.0009825672539655,-0.0043121180358878,-0.0085120732645676,-0.0100094853233456,-0.0079100506434204,-0.0026062066470533,0.0041097813383205,0.0096016979359906,0.0114737954842595,0.0087029121893601,0.0022288204775184,-0.0053544053215985,-0.0108973061706885,-0.0095784032709401,-0.0084409943502606,-0.0015758498226715,0.0056350701899744,0.010274528322844,0.0105597710453977,0.0065109040296745,-9.865523170893376e-05,-0.0064827697132559,-0.0099857394256431,-0.0091812510477276,-0.0044832999006622,0.0020076002760497,0.0074047650955302,0.0093281787298346,0.0070088576506762,0.0016554076612606,-0.0041393457607547,-0.007682712650873,-0.0074958639430704,-0.0039606526604405,0.0010138164010876,0.0050543211670306,0.0064902588371357,0.0050228639824612,0.0016477602454032,-0.0019956348475848,-0.0044289548831577,-0.0049007342070347,-0.0035298953069472,-0.0010744662099076,0.0014850593071506,0.0033307819177676,0.0040142653516343,0.0034667211008943,0.0019050836221484,-0.0002558775126964,-0.0024544453447478,-0.004051726254628,-0.0044779313709845,-0.0034361733596536,-0.0010770070729954,0.0019489284286094,0.0046198361823362,0.005865257793315,0.0050118736005808,0.0021685452652781,-0.0016902790183253,-0.0050759909712227,-0.0066467037613132,-0.0058212143967695,-0.0029921151707773,0.0007504837655459,0.0041502714526535,0.0062249628718976,0.0064437004147846,0.0047310989842102,0.0014689165107688,-0.0024810648533079,-0.0058818756651231,-0.0074839511931414,-0.0065608624234871,-0.0033214539357646,0.0010968369849834,0.0051014248500955,0.0073269275119008,0.0071497292118915,0.0048054147106002,0.0011485981433318,-0.0027277179404079,-0.0058066000189087,-0.0073240409640306,-0.0068612427487335,-0.0044269271123784,-0.0005309618224719,0.0038343015278358,0.0073957071163908,0.0089775893832301,0.0079176668156911,0.0043286602927095,-0.0009100084592563,-0.0064068518704833,-0.0106350227595931,-0.0122884975550098,-0.0105276345656054,-0.0051166384873373,0.0034616465422396,0.0138082906424017,0.0232788663082056,0.0275939405579066,0.0206697649733781,-0.004739288348764,-0.0546861876300581,-0.1120907985353422,0.024434750097837,0.072582230260868,0.0522990642903025,0.0151800183920372,-0.013638437231778,-0.0242274236944037,-0.0218917561387715,-0.0132524050875827,-0.0010089776459983,0.0038577038641845,0.0063517097937572,0.0085662893834396,0.0054664316419306,0.0030819200537472,-0.0011765270776103,0.0016619592819003,0.0020722451349422,-0.0011042425517681,-0.005501908644751,-0.0085007552879307,-0.0081680403917738,-0.004034174642284,0.0026125968253249,0.0091176687391756,0.0125137637153599,0.0108866128411686,,,
0.0028570585372525,-0.0009754622394195,-0.0038990791409904,-0.004677006350363,-0.0032653577561153,-0.0007366843513985,0.0013969504593732,0.0020818390495872,0.0013092468518939,1.89263554942982e-05,-0.0006166449723956,-3.2909342955332617e-05,0.0013423279359284,0.0024035699254903,0.0021329811310398,0.0002957999539912,-0.0023562018282906,-0.0044626423065914,-0.0047789412624027,-0.0028559338479133,0.0006706423782424,0.0043248844143733,0.0064525278756062,0.0059835623174916,0.0029403717615719,-0.0015328329498744,-0.0056250540560873,-0.0076047585402465,-0.0065523045613112,-0.002776242540784,0.0022688141734477,0.0065453105052714,0.0082621002421512,0.0066391410016433,0.0022793182401107,-0.0030461121341531,-0.00714044079711,-0.0083262037945071,-0.0061498957522233,-0.001537452402363,0.0036238735719513,0.0072596287685658,0.007926750124789,0.0053845386724486,0.0007027188634359,-0.0041653547655485,-0.0071991249877379,-0.007171080832907,-0.0041624326599085,0.0004914478437763,0.0047841906348946,0.0068893070143619,0.0059320760648218,0.0023767585251685,-0.0021467778949945,-0.005550325485047,-0.0062539456156188,-0.0039571972400333,0.0001960381424505,0.0041700657200048,0.0060321998858804,0.0048858621306229,0.0012891251455723,-0.0030217626718852,-0.0059539348486374,-0.0060394282008463,-0.0031329216996141,0.0014913311016674,0.0056977467941895,0.0074612353574172,0.0058134153245632,0.0013253117807972,-0.0041034013548402,-0.0080621192020834,-0.0086943778041048,-0.0055414430548779,0.000212101663029,0.0062129475873708,0.0099359870664526,0.0097603225272819,0.005644411813793,-0.0008780505416735,-0.0073423092237714,-0.0113441829392832,-0.011487570109657,-0.0079273032745612,-0.0022724140670185,0.0128558250295891,0.0177141728889401,0.0150219655692932,0.0030314645954216,-0.009329941877842,-0.0043289400229242,-0.011703721017227,-0.016543737229828,-0.0151820707977783,0.0036166108873304,0.0245249761388033,0.0182228894432466,0.0060576156852163,-0.0023292214898738,-0.005721593240212,-0.0051450899359944,-0.0037195124916343,-0.0048554970187222,-0.0116383688289452,-0.0115226649904781,-0.010972578995365,0.0281198446019697,0.0280741132099214,0.012447233933115,-0.009980648179569,-0.0155338222034179,-0.0024507793644961,-0.0083216573248274,-0.0107058559812474,-0.0074522374895128,-0.0132571723090176,0.0175447530623556,0.0303357668638082,0.0201671769698406,0.0034908771454688,-0.0186065005249951,-0.0213611161032924,-0.0112460667675475,-0.0097576436562401,-0.0025739986322068,0.0113639006648579,0.0184283683358253,0.0125259966164535,0.0055991628148873,-0.0013392104832257,-0.0089675028568565,-0.0108513416909273,-0.0119827643926081,-0.0045631896135956,0.0035222447046265,0.0045127363623895,-0.0006399327422687,0.0026663715167378,0.0183084782350645,0.0197397855021931,0.0001705183735743,-0.0204908982046231,-0.0074542207444775,-0.0276057011309912,-0.0330770346822609,-0.0045702792443608,0.0535461322239926,0.0617848504514045,0.0303662594025519,-0.0207834939160797,-0.0741509666831249,-0.0536413712462205,-0.0116191032708257,0.043603281921696,0.049951637902412,0.0265975530925625,-0.0013236168269278,-0.0294948967395682,-0.0245334981581602,-0.0020026908330582,0.0005246458854682,-0.0025714556361721,0.0105917045081639,0.0105438716422885,0.0065975554620102,0.003005464337951,-0.0160698679832787,-0.0193202608683918,0.0065232466131642,0.0134222713457134,0.0144387906775593,0.0058420317968932,-0.0113192725655797,-0.0088451634911653,-0.0146012891017366,-0.0177231646710595,0.0160960964354018,0.0290042741105292,0.0098717401571731,0.0009079060345192,-0.0154354552129655,-0.0207657380137723,-0.0054783614597713,0.0053093694708128,0.0067850132940617,0.0106558770610334,0.0094313727642961,0.002024748782345,-0.0174943681483056,-0.0062966432798395,0.0044281524299543,-0.0005269206428626,-0.005820990538309,-0.0046114033574978,0.0023393292845786,0.0319976819986825,0.0332331283327443,-0.0121676048437888,-0.0645849238241121,-0.0549706388255387,0.0241081639063477,0.0550465574597179,0.042512389676354,0.0111041279852895,-0.0218053960097312,-0.0315479815947747,-0.0258338251701699,-0.0122756962921431,0.0254726197646913,0.0128812782669789,-0.0184831998572755,0.0092029316114899,0.0187156378011363,0.0224194288465233,0.0093220915446496,-0.0258299020958182,-0.0417762885745874,-0.0123035363755306,0.015822124113097,-0.000881216480987,0.0100943123714057,0.0348480818062912,0.0231794172602793,-0.0097349255961681,-0.0304526350432405,-0.0187954759457149,-0.0237369867850136,-0.0023480002094061,0.0196164662477005,0.0111553348989529,0.0502623498760116,0.0253165099000563,-0.0208356274662176,-0.0460199355591744,-0.0858190013773068,0.010738984644234,0.0417798632268498,0.0505814193083916,0.0493750916952562,0.0199855010775525,-0.0236285498675236,-0.0839923789114435,-0.0930885528539445,0.0320075630955455,0.0673114564177044,0.0475580620730357,0.0199826705809023,-0.0044631363870194,-0.0208654534000424,-0.0261886124559836,-0.0334932935380694,-0.0018848053060861,0.0095541763588853,0.0259339855505682,-0.0036340321339596,0.0017102041610486,0.0068693165736367,0.0095478977552599,0.0125246070568779,0.002367727280422,-0.0209358639489162,-0.0511091808869622,-0.0218686569943951,0.0417359933554481,0.0392627769809095,0.0185165015237284,-0.0066525161781582,-0.0189919056059552,-0.019965853626554,-0.0086716723969291,0.0118631700282475,-0.0005352037383058,-0.0023783045773009,0.0053634543900995,0.0145398630644543,0.0057774190461818,-0.0128251876807895,-0.0103896585418786,-0.0034460236005942,0.0055866426158516,0.0091778170749898,0.0006058179351937,-0.00268130034067,-0.0129637737857667,0.0021913553952428,0.0129073349993304,0.0081809236437503,-0.0041478623957074,-0.0187527743312186,-0.0013227319766566,0.0102234140741801,-0.0005999176245979,-0.0023621222300986,0.0081210327090766,0.0073211421558312,-0.0004604787988425,-0.0089923029642257,-0.0094524152225654,-0.011302513949347,-0.0012155130063485,0.0192105024476765,0.0212116875009327,0.0013921192521563,-0.0141552218151094,-0.0110941031835802,-0.0066811664583235,-0.0082334960758894,0.0077124375489237,0.0124078748398551,0.0075372371477402,-0.0061002007004577,-0.0013837724561342,0.0057976085086149,0.0021268344206117,-0.0087370971609817,-0.008551030950576,-0.005519862910969,0.002938039631811,-0.0019972982782741,0.0078772935302281,0.0195749785537511,0.0103909383516594,-0.0067758179448351,-0.0190033581536656,-0.0136628101646923,-0.0142224510396583,0.0042766193078119,0.0168143403287657,0.0183124151002369,0.0121309595169132,0.0014244100832787,-0.0082990722204203,-0.0232847956552119,-0.0152701738683761,0.0016228262057317,0.0001859782420428,0.0086925334258244,0.0190780585187254,0.0142867435097852,0.0016319830593675,-0.0049809185153947,-0.0148383027133766,-0.0144717670717081,-0.0132204202439602,-0.0029759697065203,0.0103901000019447,0.0182711549062129,0.015361722684048,0.0059843644231918,-0.0071651415273312,-0.0096803959204181,-0.0067279682691947,-0.007520820582087,-0.0077348975498153,-0.0036203439761532,0.0034576613131348,0.0155413144912163,0.0105062487269921,0.004991836355851,0.0025196196821204,-0.0033794101700056,-0.0105852274701234,-0.0124674548297324,-0.0115241747560147,-0.0014682465009867,0.0050353977243971,0.016753748365799,0.0151053890374386,0.0049080629906845,-0.0039937050946131,-0.0072658492096408,-0.0089218078520228,-0.0096173700185253,-0.0084629702798282,-9.526055859265568e-05,0.0060695802744178,0.0111127890787179,0.0116357376886927,0.0077010547392801,0.0006377828302037,-0.0070296713261832,-0.0122702028892608,-0.0127321844983823,-0.0079056412366418,0.0004062677964258,0.0111884501350859,0.0132079252275836,0.0117759641364006,0.0049359302077594,-0.0041587834793585,-0.0112490015668614,-0.0130865765085851,-0.009023178729327,-0.0012282120456634,0.0065263110478149,0.0107871617788022,0.0100100928710206,0.0050699183697581,-0.0014214670461756,-0.0065051482138656,-0.0082270010401063,-0.0063449822511035,-0.0021812777598886,0.0021795706712026,0.0049014527204726,0.0051525186994441,0.0033090402328199,0.0005828718340913,-0.0016808231047139,-0.0026497517445888,-0.0022840543194664,-0.0011758486088419,-0.0001141690425457,0.0003552359826244,0.0001624847879715,0.0021494829686124,-0.000730794073214,-0.0007099356646051,-0.0002821967000444,0.0003850745832037,0.0010598054236309,0.0015019353541253,0.0014683370477107,0.0007473443592473,-0.0006897000072048,-0.0024813578691969,-0.0038303782028966,-0.0037973323696251,-0.0018623342118155,0.0015766548576329,0.0051480396844785,0.0070470149131343,0.005961399354749,0.0018950923080896,-0.0036099824307201,-0.008069965897499,-0.0092490713553797,-0.006351986426269,-0.0005516386899127,0.0055070625431044,0.0090226126237511,0.0084706522282497,0.0068338897424762,-0.0012956458581313,-0.0059152741735669,-0.0078259209609768,-0.0067491934031658,-0.0036572436592595,-4.047250425550201e-05,0.002875594360349,0.0045227125826864,0.004899457455058,0.0042301771527953,0.0027018894171822,0.0004612792505782,-0.0021932832298636,-0.0046482334216044,-0.0060285484427576,-0.0054931120546007,-0.0026582469050266,0.002003273284931,0.0069389096099595,0.0096273413136492,0.0071537387991412,-0.0027257834747201,-0.0201278799087794,0.0021574347568648,0.0114258746885506,0.0040500748380367,-0.0045692645682343,-0.0097790301173118,-0.0053511223465527,-0.0009116493839706,0.0065096233927082,0.0086180818082985,0.0042409733393134,0.0038939208353455,1.363482386009442e-05,-0.0045861287362765,-0.0075303025636216,-0.0075457237583318,-0.0046603066666532,-1.264175526086846e-07,0.0047088419252862,0.0077770268054483,0.0081266109886282,0.005625675360771,0.0010973084176063,-0.0039604477287608,-0.0078355394153076,-0.0091243314325912,-0.0072038165039424,-0.0025299377265121,0.003377877343079,0.00836240761313,0.0104091348658743,0.0085115136613044,0.0032168104023699,-0.003473924434486,-0.0088881207326787,-0.0108249461755467,-0.0085210826175476,-0.0029719742209672,0.0035281798119313,0.0083843180352279,0.0097785152598165,0.0073795660815604,0.0024050169305036,-0.0029791627658526,-0.0066441868832017,-0.0074019505640695,-0.0054033118875333,-0.0018855400198614,0.0015346990999854,,,,
0.0014032275044698,0.0001817565913958,-0.0010488111753845,-0.001396258089722,-0.0005788296254586,0.0009071915486645,0.0020998649620747,0.002149953347747,0.0008202831728783,-0.0013505898055422,-0.0032781502113511,-0.0038417662677962,-0.0024635836071853,0.0004991793431103,0.0037801839712386,0.0057281591561523,0.0051375235221001,0.0019543411371994,-0.0025715403071413,-0.0064181096415006,-0.0077363516601975,-0.0057216927389898,-0.0010050391558664,0.0045774036660437,0.0087085650613302,0.0095187446437369,0.0063776819129524,0.0002510596205004,-0.0065533238808107,-0.0112192255816804,-0.0115664147999156,-0.0070582016109553,0.0007955383862386,0.0089079144473954,0.0138433435433326,0.0133017933875268,0.0071902104168003,-0.00222195427422,-0.0111628447947996,-0.0158950333455688,-0.0142963886789663,-0.0068121004970101,0.0036523780338038,0.0128827013118829,0.0170813203575364,0.0144470561780024,0.0059530464987975,-0.0050013528562208,-0.0139454330886756,-0.0171827643234597,-0.0133826763446137,-0.0042083455053356,0.0063732778164372,0.0138599197720736,0.0152532909978687,0.0103673406472653,0.0017604250736869,-0.0066220684241343,-0.0113448289270749,-0.0109582067572739,-0.0063957547671604,-0.0002283816052321,0.0047368280866758,0.0067638439679616,0.0057813772115565,0.0030706023301764,0.0003380392631102,-0.0012516571722369,-0.0015572551442291,-0.0012612720798692,-0.0012062541506585,-0.0017401854984948,-0.0024941635587442,-0.0026972891538283,-0.0017640023862181,0.0002767352583515,0.0027918773534281,0.0049269512635246,0.006005698350777,0.0055861507927809,0.0031087741164971,-0.0025281093272744,-0.0128873841052751,-0.0215665166317122,-0.0080767838437977,0.0197700829407766,0.0184166116744709,0.0070468040315889,-0.0029533678939697,-0.0056664321512023,-0.0069581618244343,-0.0018216174312912,0.0021103433360053,-3.311897063604412e-05,-0.0042088261214995,-0.0180315011491752,0.0156282892458139,0.0152416041887205,-7.854181389534937e-05,0.0011770692343064,-0.0012664807199341,-0.006557038611081,-0.0059140802120061,-0.0036750775203046,-0.0003829500526736,0.0023650497697833,0.004568011751529,0.0042742813295575,0.0019834729923839,-0.0021985499530468,-0.0006425945966025,-0.0004045030846589,-0.0009034595934918,-0.0015138140505519,-0.0017549762359757,-0.0013932553304159,-0.0004597049160354,0.0007842757117106,0.0018933234441669,0.0023012242168979,0.0014821375837323,0.0041480657151876,0.000926766753423,-0.0021962781681797,-0.006179704257554,-0.0075542815746315,-0.0035390924505535,0.0021709517647467,0.0072842580069612,0.0093636802742947,0.0069831740964363,0.0003885136483672,-0.0087364346577213,-0.0132918128805025,-0.0091925455901819,0.0041625394411303,0.0135478119532395,0.0101717951952849,-0.0026863216673511,-0.005195273691549,-0.0023115942153177,-0.003026812891958,-0.003046210002933,-0.00089674807091,0.0047148571368304,0.0062056997733413,-0.0007604471116441,0.001878536588667,-0.0105557393768931,-0.000573897150208,0.0095026895084376,0.0054469058904428,-0.0095472438079919,-0.0067320087095056,-0.0035684032045934,-0.0002169099791261,0.0078399249094509,0.0130671434213007,0.0053465257559535,-0.0053446803719299,-0.004296514622798,-0.0098509840476409,-0.0099033929256541,-0.0008909678012796,0.0058941056194901,0.0045449871545578,0.0069936323962042,0.0090606898351494,0.0022019743895464,-0.0075331966403204,-0.0027343485699793,-0.0034157283025169,-0.0059409068355542,-0.0050566012838121,-0.005222575973784,0.0023033422744445,0.0152241956142913,0.0122437207099099,0.0035869542130653,-0.0127083356405721,-0.0017425693950605,-0.0006291980363624,-0.0098273028094035,-0.0033084397658429,0.0052118773365234,-0.0011055896795576,0.0032998391542861,0.0046175493324594,0.0031699861644592,0.0048550942899358,0.0042369958187811,-0.0055945771774717,-0.0133494832342713,-0.0101596229147651,0.0038638209790146,0.0075777966392548,0.0031481500115918,0.0053267169364542,0.0040062513339498,-0.001181413258947,1.4733900622315e-05,-0.0052996435201202,-0.0163258500160633,0.0035307866251618,0.0136252706442949,-0.0003698385467472,0.0042627320246531,0.0002481677070636,-0.0135341719163116,-0.0038178128528036,-7.003885736805011e-05,0.0130123010135374,0.0133042112613047,0.0018815376942391,-0.0090409400250624,-0.0191237799663624,-0.0084400410052356,0.0059325292020276,0.0030448981697056,0.0067203123475276,0.0115744284230862,0.007481107637686,0.0075518389816839,-0.0055478682244536,-0.0130197230142548,-0.0291388905177069,-0.0121735794256253,0.0095179135332763,0.022299893777473,0.0199017085851234,0.010686902595051,0.0041507418898553,-0.0059406546785023,-0.0168914616972686,-0.0313303006411767,-0.0164706894088792,0.0105736262689944,0.0160579118332107,0.0257187795503065,0.0143528570778379,0.0034250691136981,-0.0110772735517701,-0.0080016371709611,-0.0143748327090201,-0.0266487023522307,-0.0027625548054658,0.0196247187725021,0.0201650807410507,0.0098919164622829,-0.0098596129471476,-0.0013487802232148,0.0058472791655835,0.0031722208565042,-0.0024542691597204,-0.0150588563924715,-0.0195314223145192,-0.0084637900767537,0.0014221942673812,0.0296117551000455,0.0331824147083385,0.0038710390326575,-0.0197357217330508,-0.0171977975568424,-0.0104907042384746,-0.0032162325934888,-0.0011664713205125,-0.007380886714796,0.0087230938197376,0.0208259892074988,0.0130116448544632,0.0046591513174145,-0.006307254683395,-0.0123998111196919,-0.0166018981438738,-0.0152699139415141,0.0017583922944744,0.0102557217825526,0.0138228431494538,0.0166460343382056,0.011676671607472,-0.0008791402752001,-0.0229975157337562,-0.0328309695862566,0.0015106868714184,0.0133907570021465,0.0169968917714254,0.0060623064187003,0.0022961852831234,-0.0026619758238085,-0.0079039823049519,-0.0006983675749682,-0.0024628228151438,-0.0051717862779461,-0.0023245644022936,0.0062538020125856,0.0071341817726082,0.0011669036653549,-0.0088583266704794,-0.0005406580121795,0.0048439572989902,0.0061541292772824,0.0020918362491859,-0.0019805504833106,-0.0089004045635338,-0.0098451635120954,-0.0012588019293268,0.0060537897744876,0.0036357157378216,0.0083687419334453,0.0086313655196591,0.0010697045347593,-0.0102446699638132,-0.0095521876242887,-0.0034212061695876,0.0008435228293889,0.0018824127480091,0.0028652833607632,0.004109985281958,-0.0004716398992744,0.0011435723087518,0.0054507564687335,-0.0005590504345972,-0.0051031684410168,-0.0046301582692601,-0.000917093475259,0.0033614316166537,-0.0002013645924635,-0.0040294974717618,-0.0055268402081539,0.0011713227707823,0.0136288374583235,0.0137310293127433,0.0006645939495322,-0.0142548468883409,-0.0170609214422776,-0.003664053593044,0.0049163692921686,0.0075586714050053,0.0084935978575879,0.0062561903509268,-0.0046471433154012,-0.0102196755163538,0.0019319769864853,0.0047956050358018,0.0005785091063135,-0.0034962768644181,-0.0056288812936728,-0.0013544036627591,0.000747764698329,0.0020862883721105,0.00571743601898,0.0065991505598312,0.0013586154114184,-0.0002468904983187,-0.0061226818584903,-0.0074363130361624,-0.0062588423985997,-0.0029065908265159,0.0017324984107362,0.0063118887955112,0.0092191560848052,0.0090220386428757,0.0051419374092628,-0.0015693974022852,-0.0087848865432036,-0.0134113570819183,-0.0128839575043361,-0.0065791855097068,0.0031831337597566,0.0109911993574409,0.0094018453740109,0.0301723316266261,0.0265616161636373,-0.0029910519889907,-0.0602156916161654,-0.0740153030926103,0.0271495618402624,0.0503257858355895,0.0295817518607437,0.0059093601134308,-0.009104807444384,-0.0146924528593749,-0.0103741561026787,-0.0056939953525225,-0.0012159268535247,0.0025208256380502,0.0034091192172589,0.0043645737506817,0.0033505479288338,0.0013496228458035,-0.0029161304709743,-0.0036501878183638,0.0002056132951371,0.0018167708945937,0.0016044259401583,0.0001645487034534,-0.0015254853790844,-0.0023341227371674,-0.0015835638134948,0.0004201509730063,0.0024347911693038,0.0030189207167777,0.001530761928435,-0.0013053449174374,-0.0037237690462318,-0.0040001680006011,-0.0016184148394343,0.0022599367745311,0.0053889864173189,0.0057726060661828,0.0029101626019857,-0.001843750061608,-0.0060339369067397,-0.0074855716076666,-0.0054584930749766,-0.0009347003091775,0.0040112905594953,0.0072814877209552,0.0076455783880991,0.0050900919265451,0.0006462933046967,-0.0040607266713433,-0.0073364733617948,-0.007944196301691,-0.0055741210067918,-0.0010693018720091,0.0038169114654427,0.0071425758023056,0.0076488134578889,0.0053014512064958,0.0012196735293253,-0.0029121834242294,-0.0055945070145874,-0.0060705037796663,-0.004505815326396,-0.0017792816514585,0.0009897501589948,0.0029463345827417,0.0037807810792754,0.0036592445951624,0.0029124164162535,0.0017490551560698,0.0002089706028957,-0.0016439697082179,-0.0034847781297871,-0.0046752846609089,-0.004495095518335,-0.0025678120197582,0.0007457340070112,0.004263016760014,0.0063847491226161,0.005898742126235,0.0027605853428282,-0.0016888371686222,-0.0053249020778394,-0.006375231056792,-0.0044119098344785,-0.0005850638162201,0.0030433191298366,0.0046584029092007,0.0036632900795844,0.0009201858682984,-0.0018351858449971,-0.0030250109525426,-0.0020961441269529,0.0002445852150237,0.0024961238581184,0.0032206124136338,0.0018306068942711,-0.0010687058426296,-0.0039414268458108,-0.0050897847874359,-0.0035849454561905,0.0001252384150657,0.0043160595512339,0.0068194339280859,0.0061815042324865,0.0025004170887188,-0.0025537701879251,-0.0065732836158323,-0.0076449462864409,-0.0053081373081682,-0.0007380695878944,0.0039093022917605,0.0066045815665398,0.0063970016673554,0.0037293766019805,2.5667850010166993e-05,-0.0031290793733217,-0.0047201240697916,-0.004585562170048,-0.0032094793775216,-0.0012703401718899,0.000720867980011,0.0024919092873905,0.0038378236959113,0.0044362213612915,0.0038669266643824,0.0018749135259172,-0.0012859218363501,-0.0046824380121237,-0.0069013498398625,-0.0066346217715839,-0.0034289072713221,0.0018123877331752,0.0069686265732991,0.0095742446683448,0.0080640604412672,0.002731065325047,-0.0041917892080832,-0.0094842074557133,-0.0105172833213116,-0.0066540375374226,0.0003108721102319,0.0069831297171235,0.0100943299462486,,,,
0.0059429540585397,0.0070182760020707,0.0054300923307087,0.0024194780640038,-0.0005654127532362,-0.0025243713825567,-0.0031900536788839,-0.0029120617482283,-0.0022659302853831,-0.001620046767697,-0.0009265472298424,0.0001163684452905,0.0016432874852396,0.0032783149915928,0.0041864284012484,0.0035537853148681,0.0011993387246034,-0.0021091741634876,-0.0049020732829772,-0.0057435204571806,-0.0040596479682495,-0.0005495911180071,0.0031281471337307,0.0052558267300129,0.0049936069824451,0.0027563332380581,-0.0001727016922556,-0.0024603716481838,-0.0034012235199431,-0.0030786116272919,-0.0020462738577119,-0.0008571998654498,0.0002237145679075,0.0011904135191363,0.0020596074013613,0.0026632679876598,0.0026547727476354,0.0017426202812278,-8.866736585803026e-06,-0.0020444547767629,-0.0034999217365447,-0.0036459398365064,-0.0023307053346237,-0.0001162126048926,0.0020062512798164,0.0031472954419864,0.0029650462059061,0.0017712627829014,0.0002725438242721,-0.0008639522320059,-0.0013491801653277,-0.0013287232246159,-0.0011622855460978,-0.0011051664033325,-0.0011156038357377,-0.0009092429292775,-0.0002107024626221,0.0009749755155424,0.0022576073181322,0.0030066463874363,0.002680957754792,0.0011691591748413,-0.0010573762297729,-0.0030973502962696,-0.0040348412457173,-0.0034088413470347,-0.0014703324015885,0.0009373831859833,0.0028221369979719,0.0035487183231154,0.003092445109879,0.0018979309335567,0.0004899644972236,-0.0008435427640275,-0.002065360073822,-0.0031357756093541,-0.0037543059070393,-0.0033757205825182,-0.0015782344471816,0.0014320316234214,0.0045830127406194,0.0062785388974525,0.0052643228731682,0.0040138710707657,-0.0010363797486027,-0.0076539241250511,-0.0089486869509974,-0.006808440816366,-0.0021811334777683,0.0028993561757543,0.0062674418023083,0.0090324407116126,0.006009183261622,0.0006419203494104,-0.0004533655153272,-0.0027444308607348,-0.0070717040354171,-0.008243277204159,-0.0041901498118315,-0.0010900483494221,0.0042670078568296,0.0055677814635501,0.0069741374163586,0.0058782144788282,0.0027694288504326,-0.001559952545414,-0.0062703429515025,-0.0057284118062719,-0.0043849792191767,-0.0048254126635347,-0.0051245716323258,0.0010411379525063,0.0106646746362624,0.0142346831924642,0.0047508178618131,0.0002537809208986,-0.0057845014685028,-0.0073852891770055,-0.0085201069194673,-0.0090324656074719,-0.0025079920056766,0.0046156288405585,0.012140393267943,0.0130671454518781,0.0009272554226557,-0.0014104846793463,-0.0006450573181296,-0.0117724480267827,-0.0068702431332683,-0.0045486376353267,-0.0043993971169145,0.0069241683672802,0.0153670433014992,0.0086637776656671,-0.0040387210081113,-0.0087897210546028,-0.0020660651033692,0.0027939187668526,-0.0042800213772954,-0.0065634146708379,0.0009278837062929,0.0053697446579556,0.0037974996503583,-0.0032301618220722,0.0015705142691357,0.0087309727590478,0.0025169957019345,-0.0043765235727892,-0.0109450442551492,-0.003538902370595,-0.0017195346345449,-0.0059181558594826,0.0087971497929332,0.015632916126639,0.0082711493589055,-0.0020861060509025,-0.0121645685377324,-0.0096076226508715,-0.0061592103648033,0.0013325156206619,0.0064374568012815,0.0076856272884619,0.0034576120751081,-0.0014107053008176,-0.0001973924637841,-0.0017822621835122,-0.0030716688284757,-0.0040414082319666,0.000778549510027,-0.001964342293197,0.0026159588291229,0.003311299581961,0.0022585374132922,0.0013689383809717,0.0023912527758446,-0.0013268136514017,-0.0060695934693118,-0.0061755898024176,-0.0062094380491698,0.0027752234624352,0.0117701395053378,0.0106250576105978,0.0012519309659951,-0.0076832972920274,-0.0036421976404516,-0.0019553666293244,-0.0037346468730107,-0.0058632477959582,-0.0048723686433436,-0.0010928979955043,0.0101510862783336,0.0162453922464622,0.0205451763491299,0.0030923984288237,-0.028989999623306,-0.0362150034987027,-0.0006339952134929,0.0207375212628583,0.01637492856672,0.0040165790192067,-0.0068498348543814,-0.0045510965836999,0.0029207122177237,0.0041910789032954,0.0074781912134059,-0.0021798714676955,-0.0117941585710661,-0.0078375837023185,-0.0040464465996159,-0.0001450731672875,0.0048084503503728,0.0062037329900203,0.0042702260476429,0.0088363947141502,0.0073858167268718,-0.0032398718230271,-0.0092352902171645,-0.0102550949447879,-0.0089409413298498,-0.006427764067848,0.0040371372108039,0.0076697898430277,0.0114906048652669,0.0120717429040515,0.0070337288278529,-0.0046434580159942,-0.0153304385169384,-0.0159671206068789,-0.0083345207148749,0.0049855702960892,0.0134246105985602,0.0125250967821876,0.0059929785301187,-0.0042310290335438,-0.0090035056039163,-0.0067815279345441,-0.0050362043240329,0.0007978963418961,0.0057007062557651,0.0043828563895093,0.0071889048773208,0.0020048063805751,-0.0023066088683901,-0.0080766638489053,-0.0083263152161411,-0.0021133333138813,0.0025355318373029,0.0030188308268187,0.0039722276224817,0.0085117021600746,0.006958436187547,-0.0011337188193606,-0.0082759188017517,-0.0099931993140877,-0.0084618909053653,-0.0024615409192612,0.0054577940154228,0.0078340552784407,0.0109453595716312,0.0081357669447328,-0.0032949459653176,-0.0062964950199108,-0.0092171373963712,-0.0069998439205024,-0.0007068110823283,-0.0020263093384994,0.0024254064180435,0.00985580904564,0.0111889096754796,0.0048171684046834,-0.0037912900062197,-0.0124836920590963,-0.0063401265101438,-0.0013590809883833,-0.0014254814704718,0.0016198531931893,0.0025965894787165,0.0049212960600011,0.0087299671898671,0.0064986892064279,-0.0035133408536507,-0.0137481852721084,-0.00963356946143,0.0031707808984244,0.0043603678175439,0.0048990837454478,0.0025053790898045,2.518764890293829e-05,-0.0047174714194928,-0.0092925129610569,0.0096814740433562,0.0127512299600109,0.0047081351371894,-0.0068183272663931,-0.012397001744556,-0.0145966022769627,-0.0046575441810587,0.0128696339417219,0.012822198513319,0.0051553963808849,0.0033394507273598,0.0014259679925963,-0.0017449162560785,-0.0082231996769188,-0.0134394781289099,-0.0081804897421082,0.0026675858454807,0.0070856825567869,0.0073677362025056,0.0078783550854376,0.007509425429458,0.0007110113395687,-0.0053157287484339,-0.0076837577965857,-0.0074896383229716,-0.006036327698097,-0.0028319414340076,0.0015904504977565,0.0058898155181207,0.0085118903500072,0.0083562802464157,0.0052415728286175,3.326779001565522e-05,-0.0055667660363885,-0.0095135536574645,-0.0101179480635372,-0.0068012245722572,-0.0006241515145582,0.0057639631064412,0.0089817777304613,0.006452022468247,0.01263055558862,0.0055555689938254,-0.0056039414763205,-0.011776299115058,-0.0130923612433123,-0.0074594291479546,-0.0057643146353087,-0.0006024866882417,0.011335771904816,0.018703247949299,0.0161868261065239,0.0050462794962821,-0.0085299943808079,-0.0170066966983057,-0.0178318331316076,-0.0102057395057287,-0.0017681078677654,0.0097359477433656,0.0153290379709237,0.0169031451871973,0.007919323389651,-0.0029205726795921,-0.0087969720979245,-0.0124892294622168,-0.0123132010786597,-0.0077845019600081,-8.002373341198962e-05,0.0081288386715031,0.0135508680300743,0.0136054495374519,0.0076746859884907,-0.0023240258358842,-0.0099566017300617,-0.0158511028645081,-0.0123072952374904,-0.0043566260173143,0.0046280752648053,0.0118821007509273,0.0156360166729379,0.0118047550536299,0.0023041618325048,-0.0084009483484493,-0.0154150293675646,-0.0156980015860953,-0.0094398465058144,0.0001525405276234,0.0159004194266148,0.0191685505069543,0.0133457209452619,-6.0885360772521514e-05,-0.0099376749914433,-0.0116616686785813,-0.0118143657713073,-0.01027741305264,-0.000264411171918,0.0088337463183278,0.0132831107119051,0.0117108946264403,0.005427827916521,-0.0024843947847806,-0.0086935365102193,-0.0109625903479774,-0.0088196713777225,-0.0034717514513312,0.0028267275681763,0.0076531461063322,0.0092733496054052,0.0072366873128835,0.0025079522865992,-0.0029433722191987,-0.0069563698966551,-0.0080534455359607,-0.0059963122272782,-0.0017964824408396,0.0027905797940738,0.0060290645801848,0.0068676745594759,0.0052328812497354,0.0018977326963181,-0.001913417704877,-0.0049567623817107,-0.006297183654237,-0.005515170943037,-0.0028190299207649,0.0009553371483536,0.0045263807258945,0.0065674855250843,0.0062291678460387,0.0035449409059061,-0.0005217914355165,-0.0044517524402869,-0.0067822876454719,-0.0066580390146255,-0.0041022511629873,2.776980004315038e-05,0.00431622275453,0.0072046526964778,0.0074889855099478,0.0048091442373688,-4.789817371198941e-05,-0.0052563716710348,-0.0085815369842189,-0.0083626235258646,-0.0043975876243662,0.0017783585986285,0.0074606927464974,0.009982144162905,0.0079964496476017,0.0022113077588322,-0.0048221672465814,-0.0098291271331216,-0.0103588050096961,-0.0060201847070752,0.0012411817940353,0.0080240892736444,0.011113321168076,0.0090598464068347,0.0028797548876349,-0.0044884521014746,-0.0096616987572293,-0.0104334865996835,-0.0067163714192157,-0.000398219695572,0.0056997481820517,0.0091446824549593,0.0088365952544605,0.0052370772976658,-4.407698745709489e-05,-0.0049883327658564,-0.0079049393620325,-0.0079410654318801,-0.0052596171027534,-0.0008835450498335,0.0036989872778866,0.0070123159577271,0.0080047196737242,0.0063128836210074,0.0023672081748158,-0.0026627796188229,-0.007116608805166,-0.0093162372763243,-0.0081934071180345,-0.0013585787497083,0.0021946498838767,0.0075403930457987,0.0098765780817159,0.0081289663580596,0.0029751545677629,-0.0034544798149196,-0.0085163249778869,-0.0101754870306836,-0.0078130650770187,-0.0024136829273993,0.003881121498747,0.0086266840143303,0.0100034233354841,0.0075011872478208,0.0021199782497049,-0.0040158708008329,-0.0085148654599979,-0.0096926769918565,-0.0072153565216696,-0.0021327777009862,0.0036367617772991,0.0080535199268091,0.0096103398431564,0.0077392586200227,0.00296624843772,-0.0031717056578239,-0.0084892595247161,-0.0108294546583481,-0.0089377467276672,-0.003190066046997,0.0042776634125355,0.0103062710784545,0.0121200179483137,0.0087306895467255,0.0015399826177064,-0.0062697045722809,-0.0112696674087401,-0.011414812597238,-0.0069102227311148,6.738221902817479e-05,0.0065306300908984,0.0100474655469323,,,,
0.0061636509477058,-0.0003484225855112,-0.0066029939922964,-0.0101687006275368,-0.009781579003441,-0.0056922448299044,0.0005249692579442,0.006556203492178,0.0101457904791428,0.0099011778897895,0.0058513581290071,-0.0004885294360336,-0.0066496649638472,-0.0101828428137436,-0.0096802999575983,-0.0053897308950709,0.0008777492273174,0.0065307687843892,0.0093293854690534,0.0083401666474212,0.0042631605653546,-0.0010051037546134,-0.0053126133890223,-0.0071906016510958,-0.0063372554821831,-0.0035019047501774,3.378783609912434e-05,0.0030342621262776,0.0046965490762884,0.0047794605186828,0.0035329920270629,0.0015124880468196,-0.0006472094564836,-0.0024249083097697,-0.0035101900625687,-0.003785162988995,-0.0032397808605821,-0.0019136658637381,6.661532093131346e-05,0.0023751177613424,0.0044135313689361,0.005407423632667,0.0047022155372459,0.0021383275995096,-0.0017033411787101,-0.0055570826381811,-0.007868637213359,-0.0074164402466606,-0.0039202915434207,0.0016457616220078,0.0072483383233156,0.0105160445125962,0.0097530144085163,0.0048140052482787,-0.0026105501367565,-0.0095366226128401,-0.0129068375969177,-0.0109751991902274,-0.0042119994271231,0.0047294458056138,0.0120365801537395,0.0143686513244913,0.0104185913126176,0.0016861430199075,-0.0080007640774139,-0.014151593122663,-0.0137776435789653,-0.0069786499705317,0.0029658758120787,0.0111819800881085,0.0136989554635459,0.0095127137465707,0.0010550716583978,-0.0071963459957376,-0.0111626344128457,-0.0092732112301077,-0.0030959564047876,0.0037643741685259,0.0077660884964935,0.0072910245447927,0.0032665574845971,-0.0016612383107279,-0.0047824020225928,-0.004793263285273,-0.0022901734486517,0.0008628928045067,0.0027852087941259,0.0026484657854529,0.0009732763872719,-0.0009049365774097,-0.0017627962038088,-0.0012076381260509,0.000198031485949,0.0013927008312413,0.0015128153884268,0.0003965069386877,-0.0013856852730972,-0.0029441007422351,-0.0011312728168397,0.001486810266176,0.0020571899962931,0.0022735222932625,0.0018354203339408,0.0010730764019548,-0.0042612079182708,-0.0039545140212817,-0.003144594047511,-0.0027404495210349,0.0035190817357015,0.0073982134980322,0.0066376930812251,0.0019437223758571,-0.0027726232686081,-0.0087035343858658,-0.0050205204287087,-0.0037350441665772,0.0016307074497309,0.0042194755814881,0.0020535667941284,0.0085283490994174,0.001586279301398,-0.0024163828066845,-0.0035181728928498,-0.0045031996764477,-0.0017518054813319,-0.0004788470399512,0.0023785008788948,-0.0023361355342426,-0.0010969940297331,0.006125552839145,0.0084225978146346,0.0012985347448191,-0.0040966345343075,-0.0175832860404376,-0.0093774362958596,0.0185110404789075,0.0169063591849128,-0.00629482262258,-0.0078642631514205,0.0014774482667264,-0.0025923301935545,-0.0116702058370967,0.0064181737206597,0.0082723842667249,-0.0096660157542406,0.0017903331597424,0.0106317054510386,0.0095799148013001,0.0024462215227494,-0.0047163815192258,-0.0176136923947269,-0.0153015539210064,-0.0140443002448439,0.0117971812645752,0.0295962261550057,0.0188147797667517,0.0014866259638072,-0.0119569319762922,-0.0047627315242634,-0.00917804174863,-0.0288671098217325,-0.0085478455735445,0.0199517910594254,0.0175562698804895,0.0079553699882803,0.0068819674079053,0.0039257542182817,-0.0052525018872899,-0.0079663065243877,-0.0114696107113319,-0.0072284116218288,-0.0079393800632859,-0.0026697807731589,0.0061278861678286,0.0155014686091937,0.0180115372112439,0.0080147183339601,-0.0027622243051241,-0.0081611804288181,-0.0163243087565638,-0.0141059942463971,-0.0079575757297806,-0.0036782880004042,0.013213669486881,0.0158266517807345,0.0106791827834956,0.0126433092823358,0.0042182389840869,-0.0115343794220535,-0.0157190602866231,-0.0160716372333561,-0.0114368401953523,-0.0201845866925224,0.0182617083595036,0.0382756086863779,0.0266908369816816,0.0054430119986211,-0.0104270933329548,-0.029053022092232,-0.0284439010280486,-0.0142418058913914,0.0036139230268801,0.0185600351038621,0.0221495378959494,0.0272499008903987,0.0072383473497719,-0.0116181786468698,-0.0237705926479833,-0.0297029488532779,-0.007177460436794,0.0088612719416817,0.0187098576935025,0.0094267392722117,0.003880910290662,0.0107797207284565,0.0039550179326608,-0.0081089807154591,-0.0153319733276021,-0.0145137414051176,-0.0093436879921161,0.0036510359932798,0.0106328455239948,0.0143988810075765,0.0113865957647727,0.0089739462288912,-0.0027359253817962,-0.016475330900034,-0.014224669006137,-0.0097758608511212,-0.0070636566928693,0.0053465616366494,0.0140931160817017,0.0210705813276548,0.0189179128079162,-0.0015921396324712,-0.0239861067619551,-0.0317012032426786,-0.0027073489582062,0.0135284394589322,0.0092291589781166,0.0062664776787071,-0.0091581222166436,0.0011428594579494,0.0281744536050412,0.016887917750243,-0.02249242966857,-0.0428840409191578,-0.0036073720246565,0.0101056363670157,0.0121824087814216,0.0052989754399141,0.0085764702272466,0.0092779381438583,0.0066226862975725,-0.0036736811313281,-0.0252192991909348,-0.0197811584391914,0.0049521833369694,0.0209308707462479,0.0082182561457857,-0.010162353652008,-0.0037156414340333,0.0096687552671211,0.0052998786791412,0.0080711680860808,-0.0085372359900023,-0.0097343936618474,-0.014342167890777,-0.0146267446207645,0.0133436806736266,0.0238744622304508,0.0074895101546976,0.0051819692470859,-0.0034701095625431,-0.0136918894544301,-0.0056986612608949,-0.0108076268151588,-0.010318253493722,0.0073506526858676,0.0156682895372564,0.0139772045524319,0.0067726906067356,-0.005749182647343,-0.0150894944909979,-0.0063163024921842,0.0026207345960145,0.0056302634214858,-0.0028441433292858,-0.0036663646129075,-0.0017732434646516,-0.0026594469579407,0.0004962922156052,0.0126517070003447,0.017347266247201,0.0076817212943457,-0.0041291029910913,-0.0267795920267989,-0.0399028644358455,0.0031499121748774,0.0298083739411349,0.0231108095641829,0.0061501549336555,-0.0003208674423226,-0.007462321792646,-0.007909516809732,-0.0113428029282552,-0.004507035695503,0.0054682019975213,0.0056412199859099,-0.0038192128392392,-0.0070668130395011,0.0082179584570068,0.0066750433445184,0.0133675607978097,0.0028665361201705,-0.0127346184324347,-0.0127327907829872,-0.0032857878094347,0.0006223088575472,-0.0038061542233902,-0.0025888499147734,0.0138590321090982,0.0136537885284535,0.0062803293920528,-0.0018151956123062,-0.0137749594753599,-0.012894548846701,-0.0014010445451692,0.0017399764484826,0.0015127226142256,0.0026070994967741,0.0074926165705033,0.0089109954875539,0.0025278444549851,-0.0087282482521138,-0.0046509581348038,-0.0062680126942018,-0.0031698095519133,-0.0004325347395765,0.0060562118701573,0.0078721471602447,0.00365016744961,-0.0001684220286621,-0.0036278652936838,-0.0063300761165586,-0.0050074641039016,-0.0013896039429017,0.0047860766893316,0.0061746253180858,0.0023543047503919,0.0001108513048943,-0.0006325285627901,-0.001993958083859,-0.0031828157078018,-0.003378835058672,-0.0021424654717767,0.0002988663616716,0.0030311449303478,0.0047849555305097,0.0045403751971842,0.002127713196647,-0.001535868711165,-0.0047826625351379,-0.0059900417008119,-0.0044331983240306,-0.0007273035349635,0.0034075665953939,0.0059721435917916,0.0056990190406705,0.0027224963990216,-0.0014661925891296,-0.0047796443184847,-0.0056151623668579,-0.0036732755167934,-7.409851605392265e-05,0.0032778376498861,0.0047174517778176,0.0036672667187387,0.0008629190007589,-0.0021284304982785,-0.0037869436362354,-0.0034092047531459,-0.0013686768949566,0.0012023596214934,0.0030539114633028,0.0034060552136908,0.0022200095359837,0.0001051305588121,-0.0020158886520613,-0.0033007684184004,-0.0032875138026397,-0.0020180982168651,2.592138198089053e-05,0.0021269808337034,0.0035777955527014,0.0038736697344473,0.0028222432594568,0.0006113035720936,-0.0021499096488877,-0.0044948803077137,-0.0053728515322147,-0.0041141689707779,-0.0008881485240746,0.0031463533762105,0.006210607265055,0.0067298698214001,0.0042137421228163,-0.0003421666874848,-0.0048498840526087,-0.0071639561521763,-0.0061956606569842,-0.0024771516129396,0.0021393406944127,0.0054660920386732,0.0060892107563411,0.0040009832635408,0.0004572209609105,-0.002785550589891,-0.0043761955936956,-0.0039286871812318,-0.002009413034253,0.0003279943301491,0.0021210496690714,0.0028635725494774,0.0025363116026036,0.0014207188433158,-8.877298791081633e-05,-0.0015550083282129,-0.00250713808515,-0.00252648036297,-0.0014601666419412,0.0003643500722744,0.0021491321114782,0.0029768598876453,0.0023515358534098,0.0005660412934714,-0.001409579934593,-0.0025027169807006,-0.0022073775510746,-0.0008826490412018,0.0005311685137414,0.0011713021736153,0.0008188626915105,-5.389897819997303e-06,-0.0004522849164125,2.958576397495264e-05,0.0012580153117937,0.0023503685710115,0.0022379515025263,0.0003973647154208,-0.0026293471125805,-0.0053039315961286,-0.0058360340289353,-0.0032681639890847,0.0017300714341786,0.0069268595953482,0.0095592261502319,0.0078299612080593,0.0020244356189967,-0.0054264224044478,-0.0110292204745104,-0.0119301633734483,-0.007386679730654,0.0007454119898941,0.0088087840542345,0.0130864203196947,0.0116197457268748,0.005144968340053,-0.0033376740546698,-0.0100790020000382,-0.0123327977978505,-0.0094710779681751,-0.0030357123068334,0.0041285088132794,0.0091451613761896,0.0102215082324043,0.007236477940379,0.00167719703461,-0.0040117625164644,-0.007457484186314,-0.0073980446892051,-0.0042547417831123,0.000118256489721,0.0034462872810763,0.0042685940888168,0.0026787207927503,0.0001420659669062,-0.0014781384345415,-0.0010881148639995,0.0009721056185865,0.0031499822199228,0.0036393660368204,0.0015037011460344,-0.0026755885461999,-0.006964410814027,-0.0089584925997023,-0.0069712228033372,-0.0010082428837586,0.0069284444815271,0.0134496726434886,0.015171594180275,0.0103482794776289,-1.3278269968533296e-05,-0.0121685197316186,-0.0209350452801737,-0.0218508893808069,-0.0133088815062377,0.0023179906265929,0.0191881331734605,0.0300796893117187,0.0292990342756168,0.0152789485730442,-0.0081505329595644,-0.032302154550835,-0.0457651361031478,-0.0373597293213891,0.0010477213994383,,,
