-0.0089738300173274,-0.0053604363916928,0.0006740031180327,0.0063308280534733,0.0090369216483233,0.0075795596064605,0.0026072517961902,-0.003654627084957,-0.0083377636701155,-0.0091747217816014,-0.005578486981306,0.0009394689278526,0.0073155102448445,0.0103224159373809,0.0082069147457067,0.0017446706399769,-0.005939131491866,-0.0108531333642102,-0.0102552137365279,-0.0042506035497442,0.0041114643675024,0.0104104870014838,0.0112655030177985,0.0062163338894821,-0.002010068193457,-0.0090051652100944,-0.0111001216605487,-0.0073381603058078,8.836819824887111e-05,0.0071308300992233,0.010126076899488,0.0077176857401227,0.0014409317327177,-0.0052520843911945,-0.0089072702770139,-0.0078585555790891,-0.0029677550884416,0.0030081970909799,0.0094823975616814,0.0071118651351575,0.0035920466850169,-0.0016119825225848,-0.0058839489503922,-0.0072875808701237,-0.0053911957770831,-0.001258384314831,0.0032221696663588,0.0062189064282297,0.0066324585222418,0.0043791082180533,0.0003276478360775,-0.0039928381754047,-0.0068576414972687,-0.006958127088271,-0.0040188120930847,0.0008930099060669,0.005668481190618,0.0080719004079105,0.0068572212218674,0.0024692779739489,-0.0031022902114051,-0.0072766405151173,-0.0081441062198689,-0.0053743630205359,-0.0003197671050751,0.0046971637388622,0.0075124901156191,0.0070871672565647,0.0038526462718904,-0.0006735802195294,-0.0047173709719365,-0.0070242826904513,-0.0071866047694911,-0.0054593095351367,0.0025265787408531,0.0063110271950654,0.0074324206018275,0.0068226189161417,0.0055696239493798,6.112874351189027e-05,-0.0097880915844745,-0.0175760201100764,-0.0055230347392569,0.0058966993220815,0.0092531618142206,0.0065534851179057,0.0023416311683146,0.0002667755709873,0.0003413640149013,0.000177010011446,-0.0032893561742921,-0.0055561454653512,-0.0083726993954771,-0.0022958719194104,0.00362762944824,0.0075004437531324,0.0080244023462525,0.0050984804600351,-4.137271664621767e-05,-0.005219421137825,-0.0081528665556273,-0.0074381793919064,-0.003268382467501,0.0025195928760593,0.0072081900359939,0.008494565340431,0.0056842969352384,0.000110251819089,-0.00551871540845,-0.0085208346793987,-0.0076183851401994,-0.0035174266864448,0.0040895165163191,0.010107958032962,0.0082046969653366,0.0029682950650394,-0.0016025168606039,-0.0057876763447032,-0.007622850259881,-0.0062964109956984,-0.0024232344822345,0.0023499544815001,0.0061237252907197,0.0075092202632061,0.0060755936072524,0.0023958080615222,-0.0022210054902474,-0.0061681499209812,-0.0080341052991578,-0.0070526293224781,-0.0033989767411397,0.0017838443092535,0.0066908985440281,0.0094434827733657,0.0087869391935502,0.0046496829278959,-0.0016766931595109,-0.0078778193928277,-0.0114413102390611,-0.0107056174597185,-0.0056886481670914,0.0017587119362894,0.011148506546814,0.0146015994583822,0.0105649562398626,0.0044761338508011,-0.0039594370726833,-0.0118178597762884,-0.0167392028561028,-0.0128372224847074,0.0017630839666938,0.0082990861819382,0.0139427477933981,0.0118012159256642,0.0055541372381662,-0.0015457160942287,-0.0098777771059745,-0.0069415884224131,-0.007945023371744,-0.0100243630644122,0.0023339994369349,0.0095539256034534,0.0121098530064948,0.0085938282786358,-0.0006523765263286,-0.0062938681559739,-0.0083616713317222,-0.007171484487302,-0.0046422370719516,0.0031352038224641,0.0090982644744323,0.0089499263355234,0.0015406320399078,-0.0030780832584797,-0.0080400231822888,-0.0042035230837007,-0.0025541659144684,0.0015816370963488,0.0041801382629266,0.0058764144570643,0.0050089295780397,-0.0011764443655465,-0.0023723257661836,-0.0098949232854726,-0.007553742097485,0.0057016269886264,0.0039210343340574,0.0043516616394081,0.0041096284379888,0.0003894892912945,-4.09206317822388e-05,-0.0024188110801767,-0.0049514798899972,-0.0060034634858741,-0.0037238790197592,-0.0008176449919116,0.0104673815824752,0.0112675281516738,0.0043534531885696,-0.0027100392510208,-0.0098261425127255,-0.0093301355335643,-0.0034267730216171,0.0009197731709272,0.0059015294601528,0.0034664987037072,0.0027678866154548,0.0058232020048776,0.0053501450561844,-0.0054586031489333,-0.0113916405310428,-0.0065517202916106,0.0033687748871122,0.0022783657144741,0.0023157359666842,0.0018286022602826,0.0010000243364932,0.0025578793000135,0.0052029585910826,0.0014124030818395,-0.0058210592736387,-0.0082556559038967,-0.0117576824820082,-0.000419803858012,0.0122077787960002,0.0148880105748791,0.0054391315866768,-0.0042352616071031,-0.0068915546919172,-0.0099160895456248,-0.0089271752277099,-0.00240120901658,0.0083273410910391,0.0072398174996566,0.0081575684118258,0.0086235698551476,0.0043841567437503,-0.0083731666240102,-0.0186006455595896,-0.0182640423734774,0.0012923420783167,0.0112739761063514,0.0136434203322986,0.012014447108279,0.0052213836096924,-0.0019680677271157,-0.004193104975452,-0.0127957281045379,-0.0154556039906073,-0.0078505827372009,0.0071447974096847,0.0118563702515049,0.0106719840928002,0.0079654749741771,0.0010861104778438,-0.0048606302010979,-0.0089515676292592,-0.0024734683553719,-0.0044639466095619,-0.0052295192788116,-0.0012565172678004,0.001563970047308,0.0099238419997333,0.0099082148707584,0.0021957299062283,-0.0025463324660677,-0.0015471388418704,-0.0043085257458983,-0.0087841315109813,-0.0054537848395201,0.0009198996585423,0.0031591739452407,0.0037276648954626,0.006934036901336,0.0047471339904864,0.0015420352442295,-0.0001773360576939,-0.0043252319309847,-0.0101718787593563,-0.0070743438020052,-0.0002167578159425,0.0039294856209675,0.005601462473803,0.0078267034224567,0.0079233575960988,0.0005692268309536,-0.0057861640434906,-0.010294015461304,-0.0110833554540325,-0.0037993660170226,0.0060503971026083,0.0118817636112955,0.0076693026528833,0.0069435886122997,0.002080223962337,-0.0099721184292566,-0.0156562176496455,-0.0127320366971604,0.0027259840633783,0.0102285732517396,0.0123614153851125,0.0106703275012271,0.0021948182797776,-0.0048675401636816,-0.0105659345995375,-0.0103058332991668,-0.0077755422353123,-0.0002058423771823,0.0073574741583311,0.0126652332280119,0.0107796857030347,0.0027502054043654,-0.0075819338271735,-0.0106498667406409,-0.0080840830196319,-0.0019536660450717,0.0030494458072578,0.0054360219804409,0.0045447193868069,0.0042388219026545,0.0008859409527127,-0.0030168405637026,-0.0052438104520187,-0.0023848313434535,-5.5009206427738626e-05,0.0026443692854176,0.0015805580366878,0.0009952241587108,0.001392863688201,-0.0008269864813071,-0.0042359462525325,-0.0031478416291986,-0.0004161698886175,0.0027546152272201,0.0048582960319211,0.0047827228104252,0.0023534230502471,-0.0015249917694123,-0.005222533775847,-0.0071208554531055,-0.0064106652963819,-0.0035134899525348,0.0050430785402864,0.0102363148714156,0.0107141107703767,0.0038003888576653,-0.0023823226635255,-0.0061299967888145,-0.0082491691221522,-0.0077016224576614,-0.0045108772565257,0.0002971217856874,0.0050932569470258,0.0082077856440678,0.008501160043939,0.0057846684785238,0.0009360253257788,-0.0043713505207886,-0.0082564593299924,-0.0093126422572593,-0.0071072259313023,-0.0023216578467861,0.0034716319729013,0.0082875447939624,0.0103431172745869,0.008689257708632,0.0036751157119429,-0.0030004311820256,-0.0088133323585825,-0.0114076625111955,-0.0096351483864539,-0.0041090432771349,0.0030301211194809,0.009014453435467,0.0115703943853026,0.0097759228366937,0.0043483157064317,-0.0026899263282536,-0.0088000422478902,-0.011863218680298,-0.0109200477692103,-0.0039685168539433,0.0046229279575359,0.010106713305327,0.0126401367850332,0.0062282224674978,0.0013351648995031,-0.004653053085194,-0.0088466155335183,-0.0091904578603409,-0.0055202697197937,0.0003517565587709,0.0055871360099744,0.0078042390818849,0.0062612055622165,0.0020778813857415,-0.0025630681004486,-0.0056698028328997,-0.0038740777883646,-0.0001974159216308,0.0018673248729454,-0.0013238309296001,-0.0003989654925869,0.0001147917642366,0.0008248384296435,0.0018725298523879,0.0027149351787227,0.0025236485470187,0.0008634696259642,-0.0018343925578622,-0.0043348295682096,-0.0051986943273568,-0.0036052682431187,6.299780027236447e-05,0.004237187621815,0.0068461196547459,0.0063725786356065,0.0027417167713167,-0.00247871492047,-0.0067675820865503,-0.0079362204746974,-0.0053220003516704,-0.0001890257073316,0.0049251581479325,0.007552070331803,0.0065598703314467,0.0026542537588267,-0.0021094131803361,-0.0054633356784219,-0.006052054022189,-0.0039632268221613,-0.0004783320284782,0.0027014920500218,0.0042795612934383,0.0038504551081459,0.001920551083143,-0.0004456780309633,-0.0021645696182552,-0.0026421638721201,-0.0020344995990629,-0.0011056737250623,-0.0007120077036467,0.0036844917414827,0.0026273328731142,-0.000628448631955,-0.0006093662120374,-0.0020219026106398,-0.0003091290179347,0.0011491353281124,0.0015361582305507,0.0006282026233264,-0.0009854072268923,-0.0021975968723533,-0.0020631275714343,-0.0004401038824363,0.0018320767551142,0.0033684095230472,0.0030639953709628,0.0008283447719359,-0.0022415739665606,-0.0044137643270546,-0.004317372364617,-0.0017937537392087,0.0019320776139519,0.0048907352444467,0.0054543547130648,0.0032397510731824,-0.0006784048443229,-0.0043434016671665,-0.0059439763426462,-0.0047295282966508,-0.0013377659329922,0.0025964706744006,0.0052862438718219,0.0056165462005933,0.00355821814879,6.3770507601737e-05,-0.0034020360747678,-0.0054487611991399,-0.0052627734722833,-0.0028990177470618,0.0007193559824839,0.0041210492205354,0.0058514261571618,0.0050875449788446,0.0020440988729504,-0.0020445050447185,-0.0054128835192055,-0.0040586503441718,-0.0049934597261803,-0.0015073336471489,0.0022589797514607,0.0046494502874174,0.0047531577377262,0.0052363771668967,0.0021065387034246,-0.0033829329732124,-0.0052401758979043,-0.0054392433095366,-0.0039447720530445,-0.0011919543146573,0.0019793698565778,0.0045084611378132,0.005460297651322,0.0044359721152866,0.0018123280480014,-0.0013803479750123,-0.003919372562005,-0.0049444225928294,-0.0042947491873841,-0.0024550406756305,-0.0001873816600593,0.0018799977147994,0.0034371081831653,0.0043716716451457,0.0045111529203979,,,,
-0.0079517063346504,0.0027998989890355,0.0113219569543265,0.0145498216093445,0.0118317236619487,0.0049647053841448,-0.0027925439560006,-0.0082394180431761,-0.0095782004122974,-0.0069958750365157,-0.0022957011925652,0.0021447987687891,0.0045296140164669,0.004367204070346,0.0024747747266544,0.0003408333094775,-0.0007749203924608,-0.0005150394978547,0.0004804515684684,0.0010825696431585,0.0004663801487976,-0.0012977275824545,-0.0032243712423408,-0.0039932538805569,-0.0027881430350984,0.0001187547284261,0.003415364684153,0.005435566586645,0.0050901595582408,0.0024846045243897,-0.0011444401258022,-0.0041139936284873,-0.0051730027638969,-0.0040756210462984,-0.0015830857125844,0.0010280903914265,0.0026336007743367,0.0027592328667349,0.0041909840643794,0.0026658081025409,-0.0011298587933629,-0.001891190071094,-0.0022276320396092,-0.0025180695933521,-0.0031460393844182,0.0007444857170407,0.0047119658320891,0.002150274154511,-0.0041974890581,-0.0020129591442757,0.000694182231301,0.0029229607336168,0.0036412880351759,0.0023563716311838,-0.0004614230736367,-0.0034663876038123,-0.0050711158333242,-0.0042938895907764,-0.001330218955765,0.0024883335456893,0.0053335528835438,0.0057835952570923,0.0035379655106654,-0.0004003389410261,-0.0041734830286823,-0.0059619122318975,-0.0049080137006574,-0.0015880084705382,0.002271720549818,0.0047319471812682,0.0047052892275192,0.0024973587975742,-0.0004960243143755,-0.0026891222193131,-0.0031917721524279,-0.0021564673454996,-0.0004781158937717,0.0008562270850954,0.0013232126667168,0.0010238319053446,0.0004408163881539,3.145178215347212e-05,-4.698910042461543e-05,6.973741949605977e-05,0.0001582077693991,9.900190198315032e-05,-8.839944215402439e-05,-0.000332580254823,-0.0005803810172995,-0.0007726155040525,-0.0007857857711189,-0.0004570581575355,0.0002739216519571,0.0012104961090997,0.0018944683019977,0.0018282543397884,0.0008183205401157,-0.0008033991353592,-0.0022813003959583,-0.0028401835928586,-0.0021384672191843,-0.0004718208233993,0.0013951699788915,0.0026437299630744,0.0028005648051825,0.001907416860281,0.0004128207486408,-0.0010948009220257,-0.002131850711835,-0.0024344119535061,-0.0019676813893599,-0.0009123663729698,0.000355326998157,0.0013537708617024,0.0016837255012989,0.0012247884796376,0.0026869601425605,0.0014449276931316,0.0002985435182969,-0.0006138732865264,-0.0037121695847044,-0.0038196364972851,-0.0031364488844529,-0.0014439728193336,0.0010832014440611,0.0037225410902067,0.005380500538639,0.0050799452684526,0.0025387446276346,0.0009850492202878,-0.0055612697557701,-0.0079419213769284,-0.0075752303019853,-0.0044236580811863,0.0029448940520441,0.0052246005697189,0.0080701765029196,0.0078732159278072,0.0047179772685782,-0.0002106099822194,-0.005147716168606,-0.0084234996007228,-0.0090437466876911,-0.0070185410890262,-0.0008800587646307,0.0026184785779183,0.0090146913116191,0.0120996287426393,0.0120681592371579,0.0027967746259379,-0.0086854459905538,-0.0100104550811472,-0.0113228647299087,-0.0100284488531599,-0.0029186837352616,0.004132626545902,0.0102946954323642,0.0133923320713166,0.0107697264793384,0.0046385161569369,-0.0068818492379371,-0.0130519559273673,-0.009292182813954,-0.0074635461639418,-0.0020817861571233,0.0038997830697639,0.006913510375152,0.007258374140408,0.0069492713779303,0.0075410805841584,-0.000641240098145,-0.0100887137707219,-0.0142149840422648,-0.005050909017384,0.0050452111794134,0.0076258090140457,0.0053953698656968,0.0007084672701423,-0.0028665233836358,-0.0100706224934045,-0.0020713405361354,0.0112995006472084,0.0075907092642229,0.0037138885140716,-0.0017231953869757,-0.0076574442736698,-0.0171295044080721,-0.0043491216093273,0.0111654043020065,0.0093557243799344,0.0024098457576755,0.0003676368206855,-0.0018302134421734,-0.0013414417611563,0.0013003154979027,0.0012193024123569,-0.0031811774118962,-0.0017386536159221,-0.0033286176761533,-0.007122557764919,-0.0001403156114366,0.0085427700305108,0.0089945521503585,0.0021402863263421,-0.0015909711872923,-0.0008946823392954,-0.0030948031386169,-0.0042231897493627,-0.0025275110232899,-0.0036410892433245,0.0003285834668786,-0.000162321130617,0.0038372755596825,0.0065144825481161,0.0039839380960672,-5.125281722562714e-05,-0.0017946582091062,0.0035053605877415,-0.0027187483324575,-0.0091798416020225,-0.0074331112267984,-0.0041680478377542,-0.0045852206496598,0.0098905493868344,0.0164797589580276,0.014796800660062,0.0026838563730916,-0.0093668380261923,-0.0149916903450827,-0.0129222048077071,-0.0052007741699481,-0.0004235934323616,0.0042166946239071,0.0134110820305776,0.0106951574800138,0.0030070402460056,0.0006978699186994,-0.0015302091395182,-0.0061143090309136,-0.0079088078390944,-0.0047129376134991,-0.0051200471300742,-0.0097841304571729,0.0060348419527035,0.0146585537223661,0.0128381275057614,0.0075302006657993,-0.0042526118482001,-0.0027942988973541,-0.0081341278353464,-0.0130781881663626,-0.0103776552831837,-0.000908166464098,0.0069558984353772,0.0105082834521955,0.0130399612950559,0.0083353673223785,0.0002965209271863,-0.0094656399259594,-0.0096495436900386,-0.009944362217502,-0.0082049158651047,0.0002121676699412,0.0085685203799052,0.0113617188102456,0.0147943984141336,0.0012447642876648,-0.0080234930409817,-0.0080639614965272,-0.007547307172148,-0.0059418374996237,-0.0015385430638247,0.0002554729606372,0.0094606559863337,0.0165176771820983,0.0080381614273623,-0.0056690943065716,-0.0162685203019162,-0.0186770209506265,-0.0023858024111207,0.0123386695296083,0.0136226106087784,0.0115328262571804,0.0045741558295334,-0.0062622641181007,-0.0166011513543697,-0.0116818642006226,-0.0071804402000051,0.0032992603357054,0.0096192532151488,0.0155584050940496,0.0134629191720568,0.0079807537603624,-0.008547348945983,-0.0173925353093085,-0.0191326952109701,-0.0112747285342645,0.0004852189921296,0.0097888941859923,0.018468338718413,0.0193765252335274,0.0113606484996572,-0.0033243992158243,-0.0169321130920939,-0.0189695001949249,-0.0133297905827474,-0.0047809024774898,0.0033431314560049,0.0107168197914208,0.0159264074275562,0.0152623729226482,0.0055740964120203,-0.005327932752718,-0.0121829314830348,-0.0137554489260167,-0.0107940294842216,-0.0005363677326749,0.0006354625623309,0.0110281837278482,0.0141544864466031,0.0064151949178572,-0.0056133294860631,-0.0032743380174691,-0.0024392447278401,-0.0055049168926963,-0.005988461383977,0.0019355224506714,0.0043213794708263,0.0027549292590851,-0.0003843191198635,-0.0019829494771454,0.0021796370171022,0.0008122468043929,-0.0014114409624082,-0.0009234261831316,0.0001593935537457,0.003618640704216,0.0024129565179815,-0.002055217886837,-0.0032970698499085,-0.0053187228184836,-0.0032386692253354,0.0023839260038285,0.0034153169566566,0.0034962980491968,0.0043723195069441,0.0032242694797585,0.000417153156408,-0.0030618107619394,-0.0058496652168835,-0.0066421223819713,-0.0047433591985395,-0.0005189875343036,0.0045262378463595,0.0082166771487847,0.0086186810006925,0.005012744788251,-0.0015592020569283,-0.0060132091052844,-0.0078577203410911,-0.0096640474164037,-0.0066931319298179,0.0014859397547257,0.008921013944472,0.0123791023301086,0.0102937166287422,0.0035226859471822,-0.0049710601095454,-0.0114025542307315,-0.0128414404933278,-0.0085407687436128,-0.0003265983266689,0.0081541400898904,0.0130405846403222,0.0120285656386872,0.0054895702067219,-0.0036235149664602,-0.0110970968721836,-0.0134227245682975,-0.0094832298930877,-0.0011314570451444,0.0076538499411505,0.0126590214130932,0.0114631780612761,0.0045995212138403,-0.0022444855621908,-0.0098405279806375,-0.0100724936345579,-0.0069559358760377,-0.0047724692878994,0.0030480012680086,0.008555253655831,0.0100582244166102,0.0075478858805712,0.0023546319541678,-0.00350181331041,-0.0055063406269579,-0.0097582253361091,-0.0083643993285745,-0.0044916160846743,0.0004113986927859,0.0095133748629519,0.0115285111075017,0.0081356517355766,0.0042986168422414,-0.0011426224054563,-0.0087126385200806,-0.0113783445672018,-0.010300409030981,-0.0054345698507478,0.0017688764029076,0.0087555303440671,0.0127802674370713,0.012019258205952,0.0064236446193574,-0.0020908318822918,-0.0102733408328905,-0.0147870443265645,-0.0135867954921736,-0.006849092172144,0.0029614815713233,0.0119687944131532,0.0164072227087141,0.0166907411152095,0.0083397500458249,-0.0056309708528756,-0.015776957754901,-0.0203931399840121,-0.0172810696265312,-0.0073990368706287,0.0077213896557972,0.0222608789081342,0.0237038313772134,0.0168922135496053,-0.0011906079515301,-0.0100453559600817,-0.0213052464163315,-0.0237916127710811,-0.0130328336534704,-0.0025753534303299,0.0121783190519732,0.025617280857366,0.0252840298428128,0.0137622008086803,-0.0018757537787047,-0.0191923968937961,-0.0288430272744167,-0.0226589726859116,-0.0063973513543204,0.009705622811854,0.0186411470117755,0.021305378947893,0.0175450949202898,0.0095175822049885,-0.0090235835663548,-0.0188271706309219,-0.0241378684053856,-0.0189282438334385,-0.0038499452507399,0.012180631946148,0.0223744681676967,0.0225614121570417,0.0130410552139524,-0.0016181400739601,-0.0147635696899441,-0.0207583136293135,-0.0174796322022644,-0.0070504634260384,0.0054271461476698,0.0143907538313804,0.0163295394136047,0.011158374528292,0.0019326523396616,-0.0068369967227894,-0.0113870851306828,-0.0103431466653828,-0.0050650582474527,0.0013409436015663,0.0057212289991475,0.0063911331228809,0.0062452533928573,-0.0002606082892389,-0.0033318424179074,-0.0040186437757631,-0.0023182764404227,0.0005006308342632,0.0027025288030608,0.0030512663364139,0.0014203632238319,-0.001225451739455,-0.003405399243067,-0.003922217196434,-0.0024738580764128,0.0002277302551418,0.0028814981127228,0.0043128384656286,0.0040457047589247,0.0023958682326195,0.0001021037987419,-0.0021462270014288,-0.0039018030327222,-0.0048168825491468,-0.0044740256320452,-0.0025251039297873,0.0008750567253158,0.0047357904658213,0.0074244758406709,0.0074321055459716,0.004276120914873,-0.0010621775971158,-0.0064797920029121,-0.0096856959083205,-0.0092149646645768,-0.0050499874210543,0.0013585873494252,0.0076176698172462,,,,
0.0108529926426236,0.0002825374415792,-0.0112794535116632,-0.0183881795202042,-0.017448825185968,-0.0085331404963441,0.0045659842807746,0.0161066265345203,0.0210836496743766,0.0174447022816129,0.0067915568444853,-0.0065747761470091,-0.0175635527412687,-0.0221867627171335,-0.0187811833296235,-0.0083982626492083,0.0055377645164124,0.0182010776015859,0.0248558644050165,0.0225596126811342,0.0114920419861906,-0.0047408475121298,-0.0201649035175376,-0.0286173510931899,-0.0262564315330552,-0.0133607848026109,0.0054398205338336,0.0227821836287976,0.031521750102156,0.0278141409011645,0.0129137812441698,-0.0072250494193185,-0.0244347283463068,-0.0317920689497364,-0.0264943959405623,-0.0109256413680553,0.0084616574977945,0.0238880593319043,0.0294325251682228,0.0233593868264778,0.0086530136894778,-0.0084336912133691,-0.0211416286659963,-0.024998032054575,-0.0193837618189727,-0.0073065390133996,0.0062523685106578,0.0164453620541358,0.0201811383554658,0.0168201911118924,0.0080108057504987,-0.0030426574533777,-0.0126095594182044,-0.0175485977627325,-0.0137962574432313,-0.0094552872009987,0.0003527521235711,0.0094717554371343,0.0146267091325091,0.0141371190605607,0.0084647061908674,0.0024200365054558,-0.0083124872567473,-0.0133551986334463,-0.0110734653381441,-0.0090954116962869,-0.0017627361421035,0.005595724304353,0.0102960117222467,0.010834142397283,0.0074010055580846,0.001674152785664,-0.0039879552435904,-0.0075514968606796,-0.0080618768801705,-0.0058486361143445,-0.0021518575028382,0.001575638649349,0.0042786070627494,0.0055100002321508,0.0052554664353956,0.0036776631236551,0.001069722799465,-0.0019970799858761,-0.0046112878300556,-0.0057716842279088,-0.0048737766122504,-0.0021115744397138,0.0014989203360179,0.0045238897321783,0.0057385609962858,0.0046668479543427,0.0017897431788602,-0.0016608143715009,-0.0042339877051167,-0.004895367244123,-0.0034840340472171,-0.0007677699357495,0.001946045407092,0.0034562648127964,0.0032373847194697,0.0016403049425876,-0.000359509202006,-0.0017099374358348,-0.0018347957394294,-0.0009130592821034,0.0002632377771732,0.0007960164345429,0.0002815980073574,-0.000872195924917,-0.0016664090572183,-0.0011904643432789,0.000658023806959,0.0029251541367221,0.0040745853328166,0.0029566955134716,-0.000331775685364,-0.0042973403586522,-0.0067824774167453,-0.0061818495941693,-0.0024148485745435,0.0054142919703235,0.0097266788759673,0.0081894254178749,0.0049141046889393,-0.0014776949048451,-0.0083034201760738,-0.0100880008462699,-0.010027040882302,-0.0083914818194581,0.0025560171467652,0.0148300987211312,0.0186231569279474,0.0123418256710294,0.0036613521245314,-0.0084318170001325,-0.0194658365547469,-0.0230856972279945,-0.0161969449765999,-0.0012222465626168,0.0241331942901766,0.0324419408707438,0.0187336414479062,0.004927392701604,-0.0127582979074524,-0.027938182904105,-0.0268675003023376,-0.0106899756070334,0.0057070040344381,0.0183171254659445,0.0197301216883843,0.0169000000185796,0.0052361739235632,-0.0084897665896122,-0.0111464391857066,-0.0127584972000321,-0.0133754103329492,-0.0068507089408746,0.0073114381305344,0.0114605788795623,0.0092693480521025,0.009068093335453,0.0026097541222131,-0.0053562768883829,-0.0072575398824681,-0.0043118040431369,-0.0030624173329727,-0.0055017351015637,0.0003965576289282,0.0045064993789314,0.0038579124831399,0.005325743704572,0.0008770265964066,-0.0028310924911604,-0.0011630500728207,0.00163202530325,0.0020456272147219,-0.0007826040581189,-0.0052800266463887,-0.0038351306570934,-0.0021062216388761,-0.0022208800232335,0.0007071831636534,0.0072570025255628,0.0094257378514549,0.0059548997414357,0.001352188872145,-0.0069047072268874,-0.0119855857284729,-0.0084843121783546,-0.0043716468295976,0.0034289046881432,0.0074432222202329,0.0102127454265328,0.0058511374335352,0.0026559473519511,-0.0021658133289485,-0.0033016943434425,-0.0065018646041019,-0.0096385783218058,-0.0076599658181621,-0.0030554059598625,0.0052141341539667,0.0199204357525541,0.0113057144496895,0.0037027589504527,-0.0087788975511664,-0.0059736496319328,-0.0104832158983885,-0.0145157815476864,-0.0075871303904044,0.0142722791852567,0.0178083366725277,0.0115796233394337,0.0015424795619242,-0.0069716557083574,-0.0115942149181232,-0.0152776237080571,-0.0038002775076466,0.0130444127606366,0.0130849500136364,0.0052712964088764,-0.0040786993266928,-0.0110349790673824,-0.005818212861437,-0.0068671360856331,0.0117749597734876,0.0141166341067227,0.001945965176098,0.0021539560784268,-0.0149926154868557,-0.014605108628737,-0.0004853391061435,0.0038675132037157,0.0079009842658596,0.0105999793685302,0.0140736746975475,0.0027761119068294,-0.0169075987782437,-0.0174179840475979,-0.0205888180911133,0.0009281515757478,0.0257416155007216,0.0202043149506076,0.009070860394314,-0.0022804973193098,-0.0136245860301318,-0.0161368048906063,-0.0034021124160419,-0.0044689524675628,-0.0010066468110145,0.0007257394387474,0.0114690289402789,0.0143078929185163,0.0146350302155583,0.0011044568916465,-0.0223932347936656,-0.0071945529646096,-0.0106259044520852,-0.0006238440061735,0.0004807150544785,0.0009523282704305,0.0052394185308879,0.0158550706586114,0.017451386438237,-0.0042713851813305,-0.0067721813563561,-0.0136342023839156,-0.0245259872503609,0.0041478384948922,0.0131823759389407,0.0050708824191717,-0.0082448524422222,0.0079998256214106,0.0205129639584265,0.0047180355214306,-0.0074234643126045,-0.0118135107000967,-0.0174066346075847,-0.0153030132659478,0.0050356621005606,0.009768768015398,0.0215138587681768,0.0180368027150652,0.0003078029344086,-0.0095181260936456,-0.017900114522304,-0.0129931364474261,-0.009164828740739,0.0007791595702097,0.0145527588568791,0.0150150903259359,0.0079720988298786,0.0018662475821243,-0.0067642838112675,-0.0089211419712918,0.0007372405271661,-0.0023960168800149,-0.0158361581596512,-0.0052649174715967,0.0132703009450999,0.0151414615850282,0.0020546640544805,0.0009768042352609,0.0015682047697129,-0.0063720124736288,-0.012324456573035,0.0030431534229694,0.0032527858184985,0.0007461541810574,-0.0106870390276901,0.0010194797699617,0.0122809340176089,0.0069843531701462,-0.0015212480785016,-0.0066318905552823,-0.0044562083334482,0.0019723827415499,0.0035198288644788,-0.0007364601962492,-0.0020892409357549,-0.0012098250698694,0.0006815598530885,-0.0002944612387478,-0.0079999758838769,-0.0016322408462726,0.0091665812491638,0.01535443627003,0.0083242502609982,-0.0049194755204521,-0.0189010507854934,-0.0177972582827926,-0.0018985356202031,0.006402597800866,0.0131567688059258,0.0138136791217812,0.0058134653917821,-0.0037916640903305,-0.0054444203816769,-0.0095632296842027,-0.0103273364091446,-0.0049596579292517,0.0043281801773385,0.0116156029974379,0.0102165695666751,0.0017964800473451,-0.0041042356548882,-0.0080854233216658,-0.0045847054003204,0.0008207942426278,0.0015763785838833,0.0032564173127017,0.0021681511002663,0.0010616252772814,-0.0013072238218736,-0.0032321512397345,-0.0033872300134697,-0.0014601840201679,0.0016850893797991,0.0044139807777809,0.0051450689131545,0.0032082415285721,-0.0007137127791606,-0.0048347331866817,-0.0071318310952884,-0.0064049617113011,-0.0004774813237439,0.0038437042823334,0.004138634856165,0.0111301174602063,0.0075537446431609,-0.0024066636584117,-0.0089839826111721,-0.0099591291259841,-0.0070770073468871,-0.001389520295382,0.0047053621818126,0.0086143345539301,0.0087482577398559,0.0051689886692561,-0.0005415406118197,-0.0060131067724914,-0.0090390526126247,-0.0059092970321533,-0.004401035269877,0.0012843829848056,0.0062173092822302,0.0082985254414718,0.0067082854030869,0.0023021651087996,-0.0027996088250321,-0.0062758144481842,-0.0067544976892787,-0.0044067343659582,-0.0006851713634317,0.002566667791244,0.0040749997875108,0.0036535097531263,0.0020825482496452,0.0005048041151872,-0.0002880809179934,-0.0002765870200277,-0.0001116738185592,-0.0005647116440578,-0.0018824921175777,-0.0034751510395817,-0.0041736158910397,-0.0029475082506508,0.0003247684599153,0.0045225231817174,0.0076694598483409,0.0079141993951776,0.0045899777031809,-0.0012643089428301,-0.007256273974748,-0.0107074698724721,-0.0099011809401889,-0.0049156273418387,0.0023335144498685,0.0088713648320752,0.0119444783521166,0.0102416375470795,0.0044810781265429,-0.0029256983396496,-0.0089642078614225,-0.0113215157210505,-0.0092959579059285,-0.0039455345874653,0.0025014229734862,0.0076219602096087,0.0096984708203384,0.0082184700223497,0.0039072515780248,-0.0015952442591956,-0.0062811895711983,-0.0084424743650359,-0.007307582419969,-0.003399265891786,0.0016226941288451,0.0056555580738082,0.0070951338070372,0.0055502456847088,0.0019510231041456,-0.0019911941169843,-0.0046459856736273,-0.0051647167957711,-0.0036898207807758,-0.0010759373529238,0.0016069063844485,0.0034818683243749,0.0040464240816,0.0031889838245641,0.0011748085029767,-0.0013589067680745,-0.0034947054200469,-0.0043211057484321,-0.0033629201928134,-0.0009122228633044,0.0020083594839156,0.0041065088084626,0.0044644746041346,0.002984872079633,0.0003851361696609,-0.0022181265340005,-0.0038542687829678,-0.004063126045116,-0.0029385938566128,-0.0009350844440077,0.001362231648151,0.0033572347494792,0.0044665924182887,0.0041842794627261,0.002293364703434,-0.000846286611025,-0.0041797797130561,-0.0062384786765884,-0.0058067229365076,-0.0026542891243373,0.0021170458055256,0.0064097817095299,0.0080802224819913,0.006055645606318,0.0010129754639849,-0.0048063438083912,-0.0086219875662974,-0.0084916319756014,-0.0043325222862231,0.0019648624315279,0.0074274363844545,0.0094578122757611,0.0071071664783127,0.0015090446386064,-0.0047159016622591,-0.0087343951755158,-0.0088004853172299,-0.0049840306965401,0.0009465590639143,0.006368149017824,0.0089618283088871,0.0076814405123517,0.0031437632582117,-0.0026841823839303,-0.0073349310857531,-0.0088631921292364,-0.0066350207042637,-0.0015844912088097,0.0041592796956809,0.0081414769324792,0.0086196212124244,0.0053479345248214,-0.0002558334654756,-0.0056957984540644,-0.0085269192643532,-0.00751374474285,-0.0032313243545695,0.0022254466304011,,,,
-0.0005584790378984,-0.0117455538942509,-0.0174934433700129,-0.0157101589608862,-0.0076432038093477,0.0029576619593953,0.0116483304279985,0.0151711048508367,0.0126121353699634,0.0054689216656452,-0.0032206922649773,-0.010182345001481,-0.0130791572546626,-0.0111801946891655,-0.0029362015753582,0.0019274756715925,0.0081919569113345,0.0111256334776464,0.0097897679803044,0.0048331018117419,-0.00180317431693,-0.0076340411752934,-0.0105433941034993,-0.0095199944136984,-0.0049728107732781,0.0014424692030338,0.0073955525719463,0.010667532631592,0.0099257036846896,0.0052577863558095,-0.0017315016977144,-0.0083739497016061,-0.0118922886000712,-0.010570790334915,-0.0046471711182925,0.0035739469652867,0.0105826533577648,0.0132001782644301,0.0100848115327099,0.0024498229742437,-0.00640584130221,-0.0125676550833817,-0.0132882887431543,-0.0082382732665724,0.0003591067243786,0.0087539153971239,0.0133549237615595,0.0122823359152481,0.006100851825526,-0.0025255487909661,-0.0100164833661778,-0.0133450941168203,-0.011213339101139,-0.0045225322058407,0.0040034941415428,0.0108940327338186,0.0133126372682561,0.0102259640738991,0.0028832754100998,-0.0056493086800555,-0.0117771339874357,-0.0129528775639603,-0.0063178231162677,-0.0013594535826804,0.0060514661119713,0.0102978816805238,0.0099286440743421,0.0056273575160435,-0.0003605822544978,-0.0054277483621093,-0.0077967740615267,-0.0071586326592846,-0.0045306601435983,-0.0014852134782611,0.0081501506814748,0.0066154544575487,0.0015631538810876,0.000749754216199,-0.0002159461137505,-0.0009992517187476,-0.0015099556151193,-0.0017585193940723,-0.0016974811212994,-0.0012347454761331,-0.0003917060268371,0.0005772763851617,0.0012634387278913,0.0013655770001596,0.0009360125421572,0.0003753137609968,0.0001213148951056,0.0002586001829858,0.0004021593941308,1.7910937844173882e-05,-0.0010421291459875,-0.0022477290608631,-0.0026468124876386,-0.0015451959631425,0.0008698771926063,0.0034426630150037,0.0046317085808508,0.0034454609487259,0.0001562408149578,-0.0036803428283278,-0.0059761643461672,-0.0052558274085123,-0.0015702687216264,0.0033644582622163,0.0069577723105296,0.007104538763994,0.0033937518759958,-0.0025273561875398,-0.0076920988703182,-0.0093069921320439,-0.0062210578630526,0.0004046989159145,0.0075769661774917,0.0118401878067895,0.0108259382939332,0.0042150300960305,-0.0062886687530536,-0.0177883213051845,-0.0150912539971132,-0.0009556734149572,0.0003098715316678,0.0118564316134013,0.0166893124516059,0.0131693462373358,0.0007354679572266,-0.0100379919223669,-0.0151489411264376,-0.012797847223369,-0.0024134302717384,2.9965731894351028e-05,0.0064343569799708,0.0089876595952543,0.0112301379486157,0.0116975002118311,0.0012105426874587,-0.0097037081580919,-0.0163354512532675,-0.0160619783519733,-0.0079872579464267,0.0098268735885803,0.0152362405794115,0.0166626688518848,0.009368160960984,-0.0042413693152134,-0.0111955800556355,-0.0110408084216238,-0.0099928820910167,-0.0072106006048558,0.0006790306153025,0.0120733611358494,0.0168847983817194,0.0100685088022552,-0.0011162884901294,-0.0054577179147453,-0.0112860778247088,-0.012122187132051,-0.0065869322429473,0.0013832202216909,0.0093779615297698,0.0036998271520341,0.0030419521248503,0.0055027553681981,0.0198382535945456,0.0033301074738374,-0.0208995751194942,-0.0288377647563549,-0.0105026348623028,0.0064672293066076,0.0164924581074301,0.0143824132667633,0.0135318871338546,0.0048984997305621,-0.0064841427612134,-0.0150755239989332,-0.0137697948079179,-0.0069863371276571,0.000421876185025,0.0018547681243871,0.007562758471811,0.0196652319964555,0.0133985636434189,0.0003486570576217,-0.0166334386171282,-0.0240454275458374,-0.0038881986560076,0.0095161384627142,0.0064559628802076,-0.0084659060178436,0.003351576425128,0.0163401386673203,0.0147596497391281,0.0032218344746151,-0.016591054434337,-0.0149941721598513,-0.0122645444220759,-0.0034040831606298,-0.0014429191161336,0.0122736207975818,0.0119515114270757,0.0203695771410558,0.008503480499364,-0.0083595663964912,-0.0137655548022925,-0.0218420682930924,-0.0093303420090452,-0.0067070195431233,0.0048546215108266,0.0285092662873694,0.0147147690151766,0.0091031878432071,-0.0045975185521659,-0.0142170001252262,-0.0276211572244942,-0.0039859053195024,0.007383264362723,0.017163041725225,0.012335229459909,-0.0060684258433861,-0.0113440372952536,-0.0024159580902046,0.0013737518498879,0.0073322799668278,0.0043675515131758,-0.0030380581613269,-0.0054968194575488,-0.0016515586050913,-0.0013912052968201,-0.000119853982695,-0.0039845551434036,0.0122946239017742,0.00628773320285,-0.0016898333841441,-0.0042357611704281,-0.0060174570726098,-0.0127449220227456,-0.0109484224602388,0.0185144311065079,0.0243009502748994,0.0099652527882321,-0.0084327425878931,-0.0172100386136109,-0.0142460669733942,-0.0119183048263604,-0.0005212366578313,0.0152285790395986,0.0198696633960299,0.0100543697751082,0.0017030372249373,-0.0094671735819637,-0.008923659284081,-0.0155651708873046,-0.0069366396123692,0.0012280700753698,0.009490053518745,0.0122141197117015,0.005600723638163,-0.0004728876817013,-0.0001418602714313,0.0009690067217916,-0.0049786055911376,-0.0102475144094824,-0.0061686434296005,-0.0053827524207636,0.0067252856459278,0.0099400433962762,0.0111484944557616,0.001603398099355,-0.0065707159309018,-0.0037556853433953,-0.0030166104870944,0.0029542064222711,-0.0046206137916991,-0.0104913806711138,-0.0032605315614868,0.0119485665874589,0.0122486449893888,0.006345472948763,-0.0015121951756938,-0.0075064118946307,-0.0070377281231826,-0.0086705285143792,-0.0034044876041061,0.0071634036106141,0.0079723512853532,0.0042440417315239,0.0013479441909572,-0.0020568815018861,-0.0049384504223722,-0.0052456394836372,0.0040380608459361,0.0024453171351909,-0.0017419539159744,0.0029821239358336,0.0007415396738157,-0.0030698335456328,-0.01051613474301,0.0045723614825409,0.0029687685687147,0.0079314270871825,-0.0011689614981278,0.0017764875344087,0.0010738011950009,-0.002691783567194,-0.0054342920021039,-0.0041040553582092,-0.000922679075621,-0.0004734936640915,0.0008126781789355,-0.0022455223425972,0.0057774030830903,0.0142225286610357,0.0099554420970735,-0.0042268948525011,-0.0161648965163187,-0.0130955448542721,-0.0033828984410257,0.0022869115041322,0.0021213610799831,0.0047265159766262,0.007935405684516,0.0099852869049596,0.0073063644948432,-0.0026093882604565,-0.0087326353674859,-0.0141333603875422,-0.0076627463995735,-0.0035212438714861,0.0043199317391095,0.0080208747093466,0.0070603445948281,0.0072086133493388,0.0046909219163711,-0.0020939184710898,-0.0043493621979363,-0.0061511691824111,-0.0068943789302291,-0.0038141538176427,-0.0026300607241979,0.0035741474557115,0.0036413808171696,0.0052928878855795,0.0078977976229488,0.0032901821170911,-0.0029560555157876,-0.0034421759547659,-0.0032021682178985,-0.0044731254834009,-0.0045692787560073,-0.0030865030288538,-0.0006559274755644,0.0040575088128603,0.0067240686727291,0.0056864959891059,0.0053084337013897,0.0018938737829979,-0.0018323807286248,-0.0052048155101969,-0.010825455973741,-0.0110100754185686,-0.0051833186501732,0.0065743405469755,0.0137680921810393,0.0116311843122362,0.0065084627750283,-0.0004652586049009,-0.0039743737212299,-0.0100927212808215,-0.011024728077075,-0.0109716802314588,-0.0020089107742668,0.0072804686387266,0.0129305071406151,0.0123741363207448,0.008136273972122,0.0028435074729555,-0.0065361131253659,-0.0160715430221939,-0.0164892660525622,-0.0083961307536418,0.0025925018031155,0.0121158342368675,0.0163254865393818,0.0135598998924813,0.0051198723190267,-0.0052889646314624,-0.0132057463300759,-0.0153684384676772,-0.0110721878622551,-0.0023676921146232,0.0069130554705766,0.012831737292114,0.0130079871744972,0.0100832776665076,0.0015563027540148,-0.0089056553765258,-0.0130585068267359,-0.0118893218716539,-0.006170978046008,0.0014705498363845,0.0078065692909716,0.0104515458830438,0.0087837383327048,0.0039625131368568,-0.0018163317226838,-0.0063413564847635,-0.0057246815847801,-0.0048634696204696,-0.0024793111974993,-0.0031760501331564,-0.0015252285970699,0.0061837734311523,0.0108623133672511,0.0070442530983856,-0.0031592994453358,-0.0054140807455087,-0.0035370205386028,-0.0019284607069056,0.0008247251702404,-0.0019474925958549,-0.0027464488401928,-0.0007937914890481,0.0031608609370821,0.0043721952217941,0.0035103219410032,0.0014220728646426,-0.0010482659081414,-0.0031718849360144,-0.004422013039641,0.000376478418773,0.0013713614920363,-0.0018667856238046,-0.0001616798949295,0.0010968871209065,0.0016998614098208,0.0016476028616958,0.0010531111881505,0.0001096575923197,-0.0009074632500027,-0.0016665966578004,-0.0018709959260623,-0.0013933054783772,0.0021053680107158,0.0006515818993879,0.0011524217823579,0.000780223897331,-0.0002532921199974,-0.0012884359713722,-0.0016175341641943,-0.0009310090896046,0.0004715670661553,0.0018360972278381,0.0023733036128777,0.0016931072849598,1.95507269933082e-05,-0.0019084955959406,-0.0031822063973413,-0.0031432127433223,-0.0016974741909583,0.0006074367969185,0.002789409365338,0.0063425955693555,0.0031648590399495,0.0008591541859468,-0.0022017737951434,-0.0046780144146924,-0.0053652760399534,-0.0037848871749089,-0.0004587879265481,0.0032615301235182,0.0057506943591062,0.0058276285544764,0.0033311786705469,-0.0007256773641343,-0.0045473328685764,-0.0063660903293453,-0.0053052064515965,-0.0018463944028683,0.0023765765549119,0.0053763418102865,0.0057863194422986,0.0035081325699582,-0.0002711652844522,-0.0036720528783211,-0.0050441942094475,-0.0038000318383303,-0.0007407504945902,0.0023609164552501,0.0037669594987513,0.0028070129037741,0.0002783761803943,-0.0020773725039464,-0.0027037959445109,-0.001239061998979,0.0012463326252362,0.0029430737942746,0.0024995228943669,-3.263697331190338e-05,-0.0031254818470982,-0.0046740165654619,-0.0033513969187638,0.000429046612898,0.0046046262939941,0.0066255714356776,0.0050095488831144,0.0003275371543496,-0.0050070737869138,-0.0080492086241969,-0.006980883969716,-0.002167706033106,0.0039864769957517,0.0083068485617324,0.0085373539805386,,,,
0.0061796747957161,0.0046277929128441,0.0010138291128603,-0.0030324310718243,-0.0057483836350549,-0.0060141061977457,-0.0037860749443241,-4.8169258955177125e-05,0.0036375695080289,0.0057734496753124,0.0055240265881826,0.0030482975409996,-0.0005801291467888,-0.0038496225301368,-0.0054697737485936,-0.0024153577789702,-0.002626184642766,0.0002542609953734,0.0024826902656858,0.0032824647557038,0.0025842409250438,0.0009419895251462,-0.0007528084992596,-0.0016504927940897,-0.0013282564520412,-5.573035652643311e-05,0.0012453500719411,0.0014674712439181,0.0025364419458702,-0.0025822681062478,-0.0049667616822684,-0.0054334247868849,-0.0030337096414764,0.0017137353306824,0.0068570202762017,0.0098496585397555,0.0087768184988406,0.0033809447321244,-0.0045974941298626,-0.011966044108358,-0.0153589361848637,-0.0127582824265284,-0.0020966054619422,0.0109942762468078,0.0172020611002297,0.0170283323935572,0.0114627386045435,9.17001184033891e-05,-0.0120781042262808,-0.0194757827148687,-0.0186762313345068,-0.0100493510938792,0.0024965061796514,0.0134873500247712,0.0184761151344341,0.0159203837120567,0.0075283897094903,-0.0028665586174402,-0.0111544147828042,-0.0145922727240195,-0.0126100973576732,-0.0066381519423311,0.0007687895460948,0.0070335921034312,0.0104219951171322,0.0103916491927716,0.0074271616155555,0.0026073227659988,-0.00278844223544,-0.0074774396967129,-0.0102479888940814,-0.0101073975388867,-0.0041446064504842,-0.0005128623391923,0.0063782662589772,0.0113519764759498,0.0120589395730228,0.0076855800469605,-0.0003546260626767,-0.0087504704779076,-0.0136796739098085,-0.0126663040466592,-0.0059396712342129,0.0035163528152528,0.0113465766296699,0.0139457662709268,0.0102060624088054,0.0020068023334844,-0.0067552304285773,-0.0120710849428912,-0.0117075868359815,-0.0061625342964569,0.0017392094862552,0.0083240650517993,0.0107973692929427,0.0083497383504188,0.0022224530878576,-0.0050791817382285,-0.0083935288057824,-0.0059895412437939,-0.0047926116329363,0.001360306175338,0.0032190826013003,0.0060297740255345,0.0039743430214394,0.0025458290854525,-0.0016667744890978,-0.0048240973796663,-0.0036218556350365,-0.0010424477895463,0.0015555420790068,0.0027438470063119,0.001900735348599,-0.0003689621787341,-0.0025589381944402,-0.0031644997390689,0.0008627956560044,0.0011887841841525,0.003537202535021,0.0037855248844395,0.0014611469119041,-0.0025409470259262,-0.0065896973909787,-0.0068214078247102,-0.0006146618113179,0.0039102100413107,0.0049684718851025,0.0061307274776253,0.007094067397931,0.00185027381251,-0.0079775817123813,-0.0135207595257448,-0.0122119888474036,0.002044796117102,0.0124013422935709,0.0113819900893171,0.0002234039218721,0.0097741627814062,0.0001768948452081,-0.0087002089410694,-0.0131542416130587,-0.012881438359878,-0.0084348456820907,0.0099447510117264,0.0197314499732429,0.0148888008519629,0.0042151031212351,-0.007522063957832,-0.007996320518852,-0.0059403622937339,-0.0130310081095669,-0.0106372523263823,0.0012206762973983,0.0066071526465873,0.018266354685058,0.0209495158671239,0.0079606725181173,-0.0100787638994011,-0.0183493220396962,-0.0189887868810945,-0.0129266088294468,0.0004221176955524,0.0136298560718223,0.0203125259378115,0.0124297086926928,0.0017276998775217,-0.0002251600064271,-0.0132506630588167,-0.0127475584355768,-0.0060571457691984,0.0011809290570607,-0.0075736368617494,-5.524254174304684e-05,0.0224625817173819,0.012981097981254,0.0048150946207473,-0.0075746759777119,-0.01319239107013,-0.0100893956558521,-0.0063648779849584,0.0022083064251528,0.0130200015849708,0.0055092639283882,-0.0003265707583718,-0.0013527111215896,1.174099765291986e-05,-0.0106734466860106,0.0048295527581829,0.0051283319307837,-0.0024398200558665,0.0028454027399053,0.0002352419905932,0.0027068991899889,-0.0105551135771249,-0.004062149034179,-0.0032895704625772,0.0028013286821185,0.0059053783797754,0.0111358296673609,0.0085428293004956,-0.0016774633699049,-0.0035379236359559,-0.0115200086619438,-0.0142176413579985,-0.0106818019772579,0.0055490664775185,0.0108297278498778,0.0165284881522541,0.0128763093571642,8.282892891901908e-05,-0.0104554302004907,-0.0049418370839348,-0.0095677993618768,-0.0111666275729668,-0.0050530181907798,0.0047464621816435,0.0125798257828751,0.008988122162904,0.0035581213739773,0.0036162459271523,-0.0018332092275952,-0.0031932564695048,-0.0022520240604138,-0.0101213450719798,-0.0142339037234464,-0.0093459766096907,0.0095532302105685,0.020214642435747,0.0172414994936241,0.0074727702532703,-0.001491241338566,-0.0147210742629816,-0.0245654266302276,-0.0140981802966961,0.0019535547618958,0.0110081432257429,0.0149134415584159,0.0134163404130896,0.0114501831558887,0.0038649064619208,-0.0091118697434801,-0.0264446254785149,-0.0225096056289124,-0.0007894313181298,0.0123474526033028,0.0159586919595351,0.0133312711615094,0.0071379796936659,0.0050937608472158,-0.0050723059999277,-0.0160156012209224,-0.0170731291901399,-0.0063170219094277,0.0016150412746347,0.0112753783000134,0.0080866180228404,0.0063685827985763,0.0080182976174895,0.0047347097579954,-0.0066380487522309,-0.0142044463924902,-0.0129018527081019,-0.0025129082313757,0.0062014761373904,0.0095143806987084,0.0073710836026867,0.0018786987378454,0.0023832199772441,-0.0017672921694994,-0.0094262490083275,-0.0088626180098693,-0.0030153388489698,0.0051539695810036,0.011684255297952,0.0063006097874988,4.136295550936798e-05,-0.0027735827693833,-0.0105978968162038,-0.0078827592346506,-0.0006531411756871,0.0049323585488297,0.0053546820120128,0.0041741322168177,0.0050979284450805,0.0047616295806122,-0.0003460747561201,-0.0067794786087223,-0.0125864762762817,-0.0113316594529994,-0.0030980739278385,0.0090682912031805,0.0154351031648945,0.0126713458793559,0.0059206857898626,-0.0034793345091648,-0.0158000938838247,-0.0118673421541923,-0.0073479218474593,0.0006320348342588,0.0085982703715108,0.0094656562453156,0.0032603457196504,0.0008326115393691,0.0026716924794351,-0.0037072179789967,-0.0010050867114513,-0.0017508550616285,-0.0029814531481898,-0.0056544771209791,-0.004546666874722,0.0038896854881841,0.0019362239348212,0.0041942452158656,0.0059855049973394,0.0043137209930303,3.5728033246494364e-05,-0.0013622164542547,-0.0056204000093961,-0.0042327586740981,-0.0063220199116202,-0.005560783489186,0.001617942516694,0.00644827798021,0.0094874827492788,0.0061492515122492,0.0012737756074823,-0.0009409920771136,-0.0049807089361615,-0.002011752670867,-0.0066029121917236,-0.0108463046296105,-0.009707384890254,0.0085432441189465,0.0184158123914886,0.014956664024607,0.0055643774089107,-0.0072469231394319,-0.014550909325345,-0.013464503513111,-0.0063363526928686,0.0010246288342245,0.0079607175303482,0.0121603150437584,0.0070752398212261,0.0025550245779865,0.0019226498746371,-0.0057595767156415,-0.0119778225409289,-0.0123472296236491,-0.0031813521504151,0.0051969873984382,0.0108856355070755,0.0120307188026959,0.0071182395115105,-0.000679376391865,-0.0075591028254368,-0.0106905984871146,-0.0091903654365446,-0.0041553343511911,0.0020910972789091,0.0070748516684346,0.0090844149127604,0.007641990599178,0.0034974877512275,-0.001740588843512,-0.0061812990721686,-0.0082773919484936,-0.0073345139989114,-0.0037396369811672,0.0011854258832774,0.0056619579124846,0.0080859014292084,0.0075806679466213,0.0042852615637345,-0.0006968139813949,-0.0056485508636049,-0.0087809500491652,-0.0088247548078299,-0.0030340843998331,5.676935882634797e-05,0.005853003274932,0.0094738339875804,0.009269047860867,0.0050980039918631,-0.0014826377367201,-0.0077631525715146,-0.0109998320119259,-0.0096493145397275,-0.0041354369050453,0.0032623818158012,0.0093871103599614,0.0115953880364137,0.0089153308354934,0.0024667777658193,-0.0050092341606137,-0.0103056011453239,-0.0111306832943527,-0.0071468747448736,-0.0001757735693465,0.0065997612899224,0.0101245535737692,0.0089417002682975,0.0038813300556595,-0.0024184915637896,-0.0069088022955874,-0.0076778385613273,-0.0048207715560911,-0.0002171980998248,0.0035936776650715,0.0048016580071379,0.0032352084601582,0.0003128907802256,-0.0019204923717005,-0.0020990888796011,-0.0003833202880695,0.0016941762284603,0.0023093231576592,0.0006662919367877,-0.0023351704639691,-0.0045913519013436,-0.004187323533925,-0.0007901163089148,0.0039207796205769,0.0071503345015671,0.0066964435428784,0.0023866243098969,-0.0036914349003829,-0.0083253126785808,-0.0089759507910754,-0.0051658780210119,0.0012972592161746,0.0072999506016929,0.0100051079297065,0.0082003389351119,0.0027815109000818,-0.0037773920108773,-0.0086255460816758,-0.0097986944578696,-0.0069845057863047,-0.001518706792246,0.0042960059422027,0.0081866247275111,0.0087863676104486,0.0085446331913525,0.001038385478111,-0.0021551572329388,-0.0097073875961312,-0.0135440307787142,-0.0113843271510587,0.0062205243366536,0.01190083383197,0.0075909793964218,0.0048362999774398,-0.001780390654438,-0.0071819355058881,0.0022389032746015,0.0043268694782788,-0.0017224970207286,-0.0060230184939777,-0.0098738256081967,-0.0032217854632666,0.0070764716348061,0.0078867764047789,0.003870975520582,0.0002070201448601,0.0001685444984769,-0.0003537766787986,-0.000935008500081,-0.0015757184694524,-0.0023884878519607,-0.0032090929177701,-0.0034741746676429,-0.0024920956476291,4.040752070474885e-05,0.0036006376710587,0.0068058581745766,0.0079236799250743,0.0057646057209561,0.0005148986489593,-0.0060059149378728,-0.0109478118412489,-0.0117255445365088,-0.0074021031838353,0.0006004345722728,0.0089546631585088,0.0139274123564455,0.0131840038583532,0.00693435009062,-0.002180533160925,-0.0103497383025481,-0.0142998317611039,-0.0126192710012471,-0.0061838067289406,0.0023585797244511,0.0097195012135199,0.0132374219124782,0.0118137799001955,0.0061954471435066,-0.0014642122582431,-0.0085320541260387,-0.0128657063001207,-0.0109169569039536,-0.002963628212569,-2.1252373284049696e-05,0.0059708314287997,0.0082098788241791,0.0075526779059892,0.0060054988459686,0.0015552135657893,0.0006183488645792,-0.0045203169091458,-0.0094641243970256,-0.0108854932723261,-0.0063763189792515,0.0001447513229787,0.0063920388547285,0.0099845482996459,,,
-0.0024532009921266,-0.0037367839407907,-0.0028696699028511,2.9423245996762676e-05,0.0034824588224883,0.0054048656536972,0.0041604705986193,-0.0005537230049059,-0.0073583788825852,-0.0037930688111344,-0.0018297599403536,-0.0027078465965859,8.159795390562739e-05,0.0037753622878232,0.0079153436747865,0.0084717577589562,0.0031998962639293,-0.0059306748455199,-0.0090622794450181,-0.0090578578592245,-0.0054336349311213,0.0004459542246337,0.0060503405144799,0.0089656877544695,0.0080627660165016,0.0039580463546847,-0.0013995697816483,-0.005724157577863,-0.0074231142915136,-0.0061725520358632,-0.0028505710185695,0.0010166057707728,0.0039598515274374,0.0051141388166715,0.0044322122140096,0.0025350039567241,0.0003065233819829,-0.0015425580164986,-0.0027020163956353,-0.003184478121415,-0.0030731264981886,-0.0023459755790006,-0.000939003487043,0.0010139429103913,0.0030027471567121,0.0042432560914691,0.0040637984270795,0.002332047412908,-0.0003872892499214,-0.0030678960403781,-0.0046954934442699,-0.0046895994051823,-0.0030765713500038,-0.000411772578791,0.0024348191935863,0.0045319391255277,0.0051474828248505,0.0039959664224843,0.0013978864937851,-0.0017632733248715,-0.0043392322625757,-0.0053747397461648,-0.0045075326571765,-0.0021043919724909,0.000927746250867,0.0035386060389708,0.0049266560747388,0.0047536944326519,0.0031458039171589,0.0005726604653497,-0.0022777252374,-0.0045945678028257,-0.0055762337623942,-0.0046740342246796,-0.0019102696735274,0.0019171273642879,0.005366829045462,0.0068820444046577,0.0054948997974027,0.0013152278424177,-0.004486672328443,-0.0101529823152283,-0.001804378502298,0.0019666705443756,0.0008698460086009,0.0009383249163667,0.0036376463253543,0.0011980145320642,-0.0040591562504414,-0.0018598844924444,0.0004045197357452,0.0022821426504253,0.003075147837111,0.002378336893056,0.0004900021789876,-0.001696739728676,-0.0033054297147002,-0.004166244408406,-0.0050258886118084,-0.004488257380449,0.0041780754785524,0.0096021500353002,0.0083021975353707,0.0065741279463809,-0.0002916294023791,-0.0062798459857501,-0.0107586438534403,-0.0182849785337954,-0.004762424971451,0.0143406948600409,0.01455939238148,0.0101926771767221,-0.0005597856947099,-0.0057102485947513,-0.0060206761306978,-0.0045190108577303,-0.0017314495606035,-0.0011445302624676,-0.0010071881857073,7.19721956551529e-05,0.0039385886023698,0.0053164642143305,0.0040231844584694,-0.0022210447762839,-0.0029116299875182,0.0011380488749702,-3.029743167093558e-05,-0.0052238194160905,-0.0045305383934766,-0.0013237783507925,0.002546312045438,0.0051589490513625,0.0053983854397945,0.0026734608648451,0.0002404702789137,-0.0029594591449848,-0.0052840763327323,-0.0055453091632638,-0.0034665796355052,0.0002060290898368,0.0039707104167666,0.006141817273186,0.0080103245942586,0.0018077078092485,-0.0016722220479217,-0.00343354555897,-0.006612269757617,-0.0098581189619678,-0.005399255394278,0.0040735912978912,0.0081069908473408,0.0103183197450234,0.0065328145816509,0.0029951105708994,-0.0035726196069574,-0.0101421770618194,-0.0101504469924444,-0.006571075113797,-0.0001882184945356,0.0040244079998859,0.0097149944270156,0.0094291991629366,0.003750183457554,0.0020236670866053,-0.0040805687263269,-0.0091722242629094,-0.010500267926459,-0.0044677670683723,0.0030408689769293,0.0064999268549589,0.0072291617131687,0.0053626570292258,0.0031290595356211,-0.0046996595764643,-0.0104311875295316,-0.0021982658355111,0.0014797255388833,0.0042330593848689,-0.0004787073530283,0.0004952289546346,0.0051976166649745,0.0009291908693257,-0.0029330165070803,-0.0032011444120549,-0.0065707637820135,-0.0038401119722477,0.0018384414645738,0.0089370871768737,0.011677496635444,0.0034699390020451,-0.0065792172562162,-0.0081749824980889,-0.0080157484392849,-0.0004384738094433,0.0032752466049935,0.00057752145782,-0.0021234121761339,-0.0007505730907231,0.0097667425482745,0.0093698881602221,0.0043890300814069,-0.0039531641914401,-0.0096787659665428,-0.0106434345955006,-0.0045168270653655,-0.0111898848394053,0.0104741885260622,0.0175033415644985,0.0125776654438501,-0.0019788929343693,-0.0088839920700627,-0.0008178611357608,-0.0088968074707213,-0.003181969595363,0.0033359727310346,-0.0016031374624183,-0.0024045939173273,-0.0019464258476633,0.0072083386507382,0.0104223866714578,0.0075426884080171,-0.0004989295747677,-0.0118449090833986,-0.0060921891049505,-0.0106063947218696,-0.00373018445246,0.0015611122938685,0.0139882582077679,0.0125588575106767,0.0070046222562443,-0.0032802221724954,-0.0064747177540397,-0.0076205197581578,-0.0140836170827993,-0.0091882992752046,0.0011206198668353,0.0228269274887859,0.0145605740552967,-0.001538043922422,-0.0089158990914764,0.0045708033422588,-0.0025499987538565,-0.0087540477037444,-0.0117484632477211,-0.0079244009724956,0.0037405125498947,0.008808683203719,0.0200578052723674,0.0106837702989722,0.000127358190403,-0.0141517462875921,-0.0105751174058524,-0.0060897496972115,-0.0063776495283564,-0.0051509249396816,0.0010533647537954,0.0159982707801605,0.0207286913632743,0.0105382388149215,-0.015541191324457,-0.006794993903531,-0.0067896902290113,-0.0171579306799191,-0.0033966301299386,0.0090883369282871,0.0084386118115973,0.0088401239102643,0.0123802228772255,0.002186115476036,-0.0124525704491701,-0.0167967144936713,-0.0072183268189615,0.0112338964872915,0.0082884077112964,0.0016862553943943,-0.0058209882143346,-0.0041624071263453,0.0081151057049535,0.0049989791257735,-0.0030378686802137,-0.0087053619188488,-0.0034437201681378,0.0035694345908529,0.0077679056843368,0.0028479847116713,-0.0023988343920049,-0.00269130318496,-0.0041898193298552,-0.0074511086556021,0.0014243455413424,0.0073302726859249,0.0088856800186824,0.0063497734491506,-0.0084736475274444,-0.0076280409958748,-0.0087561438801023,0.0030808734242308,0.0090980782481709,0.0025865796397127,-7.079947190228102e-05,-0.0018844338107844,-0.0013195823729844,-0.0010117494052181,-0.0015001368511872,-0.0033086763868568,0.0030348301959016,0.0030078522758405,0.0020507504050332,0.0011017696280198,0.0003730869303948,-0.0007494427559455,-0.001547151542726,-0.0042662102913677,-0.0079843320829093,-0.0005106903784741,0.0037933934446377,0.0093603255391843,0.0080364882654427,0.002249527212335,-0.0035774583525879,-0.0049610262184184,-0.0056752101860366,-0.0089050628632108,-0.0039054864217625,0.0049618522373413,0.0048423490661881,0.0072525692035105,0.0055179805992118,0.0044546891235823,0.0003945319521275,-0.0076784397540817,-0.0103049706885853,-0.0062690562692303,0.001898054341545,0.0038294968136626,0.0021184131513701,0.0024071990789605,0.004061730261643,0.0022118856924509,0.0010007245876978,0.0017284456855102,-0.0028225230488838,-0.0052988418404787,-0.0045543900808069,-0.0035600864447374,-0.001865053468222,0.0010590834659619,0.0064131371859424,0.0070564717851945,0.0064857303379361,0.0014411804678238,-0.0024566940108087,-0.0074780533511864,-0.0070623105998195,-0.0071605277704942,-0.0012140863790496,0.0005139610204589,0.006097479543555,0.0140502856347694,0.0086798311621551,0.0006289695332021,-0.0073874940622671,-0.0106900040590851,-0.0079401470693972,-0.0053763197587943,-0.002341105374208,0.0101029151275924,0.012954620991837,0.0052712397206368,-0.0013639186521895,-0.0032286944511415,-0.007696553806649,-0.0034274090727551,0.000343606088235,0.0016451648008473,0.0015214867394618,-0.0029701861172049,-0.0007891534262068,0.0032040187381627,0.001973331025843,0.0026947937274317,0.0011259626522164,-0.0009344847453206,-0.0006972420950918,-0.0032236435493579,-0.0009320047872338,-0.0001678747558395,-0.0032572558518133,-0.0013513076455131,0.000820619657936,0.003431031809345,0.0053341782801264,0.0035007612720877,0.0002831065581509,-0.0025011174137776,-0.0073768866397101,-0.0025301229786175,0.0014079475657053,0.0048957876298823,-0.0017583533708408,-0.0052571321314996,0.001308433635872,0.0019895351011927,0.0025074309576093,0.0043873912734175,0.0052319317175457,0.0015567758671196,-0.0053930632769389,-0.0096417895398935,-0.0113026898855041,0.0010907479631836,0.0067436844536772,0.0092387216987845,0.0043273301144022,0.0009423178790808,0.001656483648749,-0.0019371868735962,-0.0031585030140514,-0.0055472407812679,-0.0060381754765521,-0.0050952202244115,-0.0014608460675969,0.0135081957113416,0.0092793703830404,0.0001522752027594,0.0008044680943172,-0.00185651465182,-0.0082698501042521,-0.0019500033427496,-0.0013034049319232,-0.0042475566043049,-5.1978205761148e-05,-0.0005830682095136,0.0047964974574363,0.0124674060489886,0.0073331869576411,-0.0004057745806284,-0.0097746591778058,-0.0087512844547936,-0.0071882061151053,-0.0058511579107248,0.0020682785577459,0.0092524884149701,0.0098259268998862,0.0054204762631166,0.0045819376118633,-0.0009208741491685,-0.0077878372322298,-0.0130228207007274,-0.005032039653083,-0.0037455536173841,-0.001570574062685,0.0141950013989935,0.0133628248991419,0.0061238717806643,-0.000791304942583,-0.0104595041384598,-0.0062707972954352,-0.0072019405346607,-0.0042437261803937,0.0007963091822619,0.0050924708606149,0.0035837486865745,0.012026236490336,0.0061333681586384,-0.0026140660456688,-0.0068297193060563,-0.009014951133205,-0.0078235825364224,-0.0035358132477921,0.0046139783901062,0.0067323452147312,0.0083296186151346,0.0062271950641565,0.0013743965951842,-0.0040831768954435,-0.007751663502627,-0.0080291706274917,-0.0048017122663754,0.0005023785250379,0.0055277579677606,0.0080235480387391,0.0068578879441928,0.0025689791493568,-0.0028279701121285,-0.0067510512804107,-0.0073116837893823,-0.0043426718366716,0.0003455032626237,0.0061814013404046,0.0027732396044619,0.0062575226584929,0.0007950141371854,-0.0004703775075433,-0.0012595939358804,-0.0042270930397083,-0.004945310762685,-0.0080125414263894,0.0059641282480929,0.0062975321031796,0.0031167272247669,-0.0005226775291401,0.001087615513445,0.0004328421438926,-0.0009372669571724,0.0003307510118075,-0.0059689852169747,0.000459868392211,-0.0025081865963964,-9.306504620897907e-06,-0.0003752588996063,0.0007319130464758,0.0012183651541687,0.0079692048256947,0.0066540196180208,0.0015488257226883,,,,
-0.0034579404327404,0.005278813259337,0.0110606629448096,0.0113049831870909,0.0080198270303476,0.0054811829981593,-0.0046454206238176,-0.0110194445815313,-0.0109952192646769,-0.006903782286347,-0.004006315775923,0.0058645125720789,0.0114477671102697,0.0108910441697672,0.0049508798631014,-0.0035256570057281,-0.0084051464191905,-0.0069118338372193,-0.0054115894356514,0.0020680714966087,0.0005499859180282,0.0015885579145049,0.0063174408366064,0.0079790093952122,0.0013405015544895,-0.0042156975211141,-0.0096780839944571,-0.0050872968133012,0.0012742549002072,0.000846310007074,0.0043360861824106,0.0056610478226299,0.0041505126283965,-0.0003441708434695,-0.0073355945543057,-0.0056709711469207,0.0018502259420603,-0.0023069461127244,0.0049328030539975,0.003706473574379,0.0022361836890969,-0.001571328088586,-0.0041204227624447,-0.0033587799082266,-0.0009385241142762,0.0013025017178235,0.0032264179448096,0.0037742961072107,0.0016351117857541,0.0011481087849089,-0.0041473487248865,-8.785409876566047e-05,-0.0087240918831835,-0.0063356833352415,0.0050010475015204,0.0097626283927582,0.0060860583390474,0.0015969592774421,-0.0026080909014799,-0.0040585168270282,-0.0038958180477486,-0.005322438143961,-0.0024126943057191,0.0018176232432429,0.0054639454992123,0.0060131955199617,0.0016176022838665,-0.002743796274813,0.0027376292834408,-0.0022503766801793,-0.0041944902989745,-0.0035890398440193,-0.0040285779291456,-0.0013929763615679,0.0022250902064019,0.0085396204153501,0.008898372066431,0.0043320224844925,-0.002591303904267,-0.0089093104116499,-0.0123229752696903,-0.0069304487454471,0.0019136397866822,0.0076083561576266,0.0102867143038442,0.0052410862625939,0.003981909174662,-0.0001169542708878,-0.0050169231800466,-0.0083938897390364,-0.0086466568400624,-0.0055485845142123,-0.0003464355877075,0.0047554226186615,0.0124462344446519,0.0116409370694035,0.0049941950554098,-0.0035977101589325,-0.00900970973513,-0.0112763373309751,-0.0091214299819425,-0.0031572768721757,0.0042617989876196,0.0100101394634214,0.0115422959974988,0.0079850641836086,0.0004647487852457,-0.008422552452739,-0.0131555907268135,-0.0066942283237084,-0.0026409080535733,0.0050487931206496,0.0092323489296861,0.007047609139918,0.0014533839657688,-7.886148571332412e-05,-0.0032022633657272,-0.0054894358327694,-0.005358284476126,-0.0031372832431409,-0.0010523703738309,0.0028652223138993,0.0042916453667591,0.0137567633801687,0.0072539836136516,-0.0039847208726548,-0.0117527173305051,-0.0121758712498155,-0.0088623314534016,0.0003278345985962,0.0088912738898775,0.0102320230959111,0.012049598274432,0.0071005566835954,-0.0021160128550362,-0.0117323895726147,-0.012971436219178,-0.0082196328468731,-0.0022616761908592,0.0024332384612356,0.0066851742929019,0.0114603585149186,0.0121776598759994,0.0016371902640223,-0.0027019118821013,-0.0046561659301505,-0.0128367864311488,-0.0134502776600528,-0.0024009422922048,0.0011524351971097,0.009052455647589,0.0145287246313947,0.0101828971562505,0.0024050569216732,-0.003918349579404,-0.009302422153791,-0.0111776834751996,-0.0109370134657218,0.0008645922166828,0.0070503510719642,0.0088529833449951,0.0038140787320646,0.0033008655907466,0.0023852823983704,-0.0015759944083196,-0.0027992121064997,-0.0061805665874845,-0.0055632684837747,-0.0021339077798464,0.0010114307319431,0.0057970756434367,0.0051458026384848,0.0014492240459884,-0.0030708126541388,-0.0038247263054404,-0.0007506726134154,0.0087540784904499,0.007354169051747,-0.0056177264627467,-0.0161669478294702,-0.0044652553653559,0.0019318261897484,0.0054217187903914,0.005068681860037,0.008715497489948,0.0034150949501202,-4.058123589228363e-05,-0.0059324462266148,-0.0052863018098528,-0.0033083569844121,-0.0122498473463333,0.0002935496575354,0.0054341393170368,0.0136469247252612,0.0079393279439382,0.0028404515693381,-0.0042877772467896,-0.0086650783909319,-0.0051099857230938,-0.0034845028934659,-0.0042708120408846,-0.0009137151775704,0.0078772332144313,0.0072772159344761,0.0022698150018517,0.0061324040837821,0.0010092349882336,-0.0045988084081846,-0.0105675098867975,-0.0125318023174548,-0.0017091959572312,0.0070157969582033,0.0106963513175505,0.0066624350240186,0.006530481589494,-0.0001053207992326,-0.0062175278837071,-0.0117510707170284,-0.0108452554963999,-0.0016652462520057,0.0101367505930216,0.0084960424386288,0.0021583497560385,0.0038919907576434,0.0042053628512776,-0.0026251650212448,-0.0091264491321315,-0.0113758448536823,-0.0025645717917353,0.0062646028711391,0.0050110219272318,0.0014911972846083,0.0008050915268333,0.0117557162247452,0.0008937426186581,-0.0078869997375246,-0.0056847103412745,-0.0053202803474377,-0.0036440134742637,0.0013981210994719,0.0010514978941533,0.0007355425753864,0.0107632880501597,0.0075081559136268,0.0005259761092156,-0.0020064992129968,-0.0049236711243407,-0.0075239003914709,-0.0101471164622664,-0.0074770509461748,0.0031666921864805,0.0105819129172684,0.0107504131750653,0.0155260933397908,0.0051448045180264,-0.0079738242985967,-0.0171109071692536,-0.0152643239947003,-0.006656003578814,-0.0008177771690856,0.0090150186865226,0.0136864780422369,0.0115623850705654,0.010895245701199,0.00347168261542,-0.011978825471887,-0.01447877108312,-0.0208729121306999,-0.0091607364084582,0.0085370558855859,0.01380399863081,0.0151316779186767,0.0132743408959295,0.0044833287173992,-0.0050555105498149,-0.0134609793090632,-0.0180436050198013,-0.008903456297436,-0.0011479197096397,0.0032297434486046,0.0125829215474275,0.0179015430915973,0.0103048657964279,0.0001738591331661,-0.0088398374465955,-0.0137406168232467,-0.0108001010050894,-0.0085361304428285,-0.0027824509667827,0.0051578975002105,0.0150061564647986,0.0191264616771492,0.0098082745178302,-0.0024956645727265,-0.0170589978894737,-0.0196367116007012,-0.0100066458745131,0.0007979451837729,0.0105492939950489,0.0141331837421332,0.0096511108023224,0.0010732570345091,-0.0033829596417244,-0.0069556203630697,-0.0076497249416998,-0.0039080425020258,-0.0002145117862112,0.0031157964970023,0.0050605309038093,0.0019587775207878,0.0002656914625783,-0.0002829568705469,0.0006071881598599,0.0006223813336382,-0.000495838224491,-0.0034385257693982,-0.0087070888047771,0.00137378154977,0.0092128296864534,0.0072353077927005,-0.0005918198862,-0.0048503709061926,-0.00725942951148,-0.0047509134890624,0.003509979048322,0.0049399238028758,0.0050313472139967,0.00237055602891,-0.001840665802225,-0.0049234302637529,-0.004535064261255,-0.0011986584834767,0.0017592784408418,0.0035540177690584,0.003673179849056,0.0020870578417479,-0.0006224468486986,-0.0033175367246007,-0.0046539205876268,-0.0037065759182079,-0.0005936207383126,0.0033459099862227,0.0060882939079254,0.0059806035128185,0.0027250023933599,-0.002314311271549,-0.0067112184088947,-0.0081929079866121,-0.0058233711167736,-0.0005242238646903,0.0053298564840123,0.0090209411840672,0.0087624681992916,0.0045557087298159,-0.0017674491096177,-0.0073705045954022,-0.0097510592251438,-0.0079303051256533,-0.0028624404698167,0.0031373429448809,0.0075731567033406,0.0088651882886094,0.0068191779866942,0.002391348093583,-0.0029087995227038,-0.0075427632817632,-0.0077127573781895,-0.0051429211803881,-0.0019842705370248,0.0008750549406351,0.0038729761877265,0.007413448907996,0.0074550382925919,0.0064214647346211,-0.0016536313992397,-0.0067709317592153,-0.0091140869950684,-0.0076869895675029,-0.0033376478965465,0.0041847094926269,0.0074078403405444,0.0074119153046471,0.0045365953728673,-0.0018825122645339,-0.0046027783842839,-0.0047491700881925,-0.0025474017423847,0.0004166279812035,0.0047410710313267,0.0018561369363855,-0.000381838425382,-0.0029160784443054,-0.0039218801198997,-0.002436774645951,0.0009978294515179,0.0045795287267952,0.0062385931991249,0.0048152632494789,0.0007507303130188,-0.0040919345507503,-0.0073689095180872,-0.0074425679284225,-0.0041897571603052,0.0009633038867377,0.0057522359421469,0.0081326768832324,0.007160271219327,0.0033198647515655,-0.0017683575482831,-0.0060672263336725,-0.0079326472479454,-0.0067019210302238,-0.0028806920557396,0.002079021427494,0.0062923972765795,0.0080877188746085,0.0066244883736949,0.0023038963254493,-0.0032303284355609,-0.0076287473642282,-0.0088099884759691,-0.0059829812182722,-0.0001917609150798,0.005978296576968,0.0094804638214049,0.0082068589982255,0.0020853029703514,-0.0017429300361867,-0.0044425014838635,-0.0097873863509973,-0.0113720095208201,-0.005368503268798,0.0050353818136516,0.013130244517888,0.0153616405466197,0.010175438598665,-0.0013042339204099,-0.0154696724286792,-0.0150828799752842,-0.0101082919413812,-0.0033395692256413,0.0034256288527564,0.0101265112127679,0.0158403622262399,0.0135166826421882,0.0049480253085782,-0.006475481659833,-0.012556785967375,-0.0176041808083842,-0.0191713947986441,-0.0042372740888195,0.0150308551547575,0.0233807786685576,0.0169819901862793,0.007750599139624,-0.0058094109624982,-0.013003355972756,-0.0164939419040604,-0.0146692992120497,-0.0049148634311894,0.0051094067150906,0.0124375157764714,0.0137321581470489,0.016730540828415,0.0034027552178963,-0.011282636613989,-0.0125771812918463,-0.0122009506801159,-0.0079307595521212,-0.0004007073039546,0.0054338296876673,0.0098207930007578,0.0120940309198949,0.0096611664694191,0.0021821565349309,-0.0068528844968256,-0.0140860023992298,-0.0174546101383799,-0.0044531044106699,0.0066110617545126,0.0082882042332017,0.015518821679152,0.0098385472061614,0.0013657555732577,-0.010653473513034,-0.0093859957705733,-0.0125021305532753,-0.0023863111028807,0.0080152211015308,0.0068013121639924,0.004027357179256,0.0004215962100966,0.000921659157437,0.0017743693085429,-0.0026770463726213,-0.0063063767526936,-0.001176866692473,0.000769636300212,0.0020608891861426,3.1550423421011985e-05,-0.0006804840407802,-0.0009054373489088,0.0008737857912459,0.0035130770207028,0.0034174451635517,0.0002879677626867,-0.004836490540019,-0.0022498439185851,-0.0017853143085914,-0.001930325870235,-0.0012515017488584,0.0024940767927489,0.0063370443589018,0.0057495556027651,0.0030370719539875,-0.0052466816737977,-0.009102559580288,-0.0082921936457078,0.0016757572840013,0.0041991804598426
-0.0037446240193631,0.0011666909312265,0.0038569634483989,0.007804728240095,0.005559906757197,-0.003056547986618,-0.0033432301909512,0.0017846543968508,-0.0028203220658149,-0.0052524846772956,-0.0033762615232473,-0.0003283937569286,0.0028758127358696,0.0079147202991234,0.0058349892503014,0.0018133382055536,-0.0022679376998126,-0.0063945832300335,-0.0083448093467552,-0.0045741824386245,-0.0005963544370911,0.0043187551187633,0.0080241117951435,0.0065044337517213,0.0044997377802794,0.0004727991681278,-0.0039942207960977,-0.0074582474933341,-0.0090821286593055,-0.0086499841236032,0.0034467603255582,0.0094223383499698,0.0083068615987754,0.0031575740567906,0.0028943007644323,0.0002696384044912,-0.0033430052758176,-0.0060976288612555,-0.0066201977430859,-0.0046337125479799,-0.0009880815330704,0.0028487618814768,0.0055015998930795,0.0062147529443419,0.0049913987676817,0.0023965802011303,-0.0007697997115713,-0.0037324196499686,-0.0058539600080204,-0.0066512406860506,-0.005818800556443,-0.0033251818541076,0.0053096395134307,0.009214687731727,0.0092280994318559,0.0060621726754942,0.0018798750921679,-0.0044133174781038,-0.0099389540892309,-0.0117323945753494,-0.0084006847625096,-0.0010646954624135,0.0070415509674465,0.014641676304713,0.0117802282553786,0.0060216851541137,-0.0025596238239541,-0.0100890897701634,-0.0131973635111206,-0.0105291381693716,-0.003307304445695,0.0052011138447704,0.0110268479851715,0.0111030561938106,0.004575923571213,0.0007672197250043,0.0011944191854333,-0.0065709653594122,-0.009864032202388,-0.0108371199736207,-0.0072170507644365,0.0018266069019878,0.0102086927393295,0.0131159443455132,0.010300568353973,0.005965637962957,-0.0044610853354322,-0.0104011696108455,-0.0121790199745326,-0.0092727239205507,-0.0030171720093773,0.003895149060369,0.0084681297169571,0.0085980203863095,0.0039695386885076,0.0060859014396014,0.003268103097064,-0.0040533181984003,-0.0092075341256121,-0.0127122890498456,-0.0061706244825676,0.0007978433769587,0.0060661273988979,0.0081385902087654,0.0065291370163609,0.0067656918398945,0.0005010023735274,-0.0079976293105738,-0.0073448617223657,-0.0011873362954725,0.0010457139936066,0.0006304556821434,-0.0020947108201747,-0.0019974205607393,0.0003170786858823,0.0054675761585842,0.0031178087928719,0.0045230646499143,0.0005830295760689,-0.0047580769454237,-0.0026839111906241,-0.001505446325274,-0.001511696780471,-0.0024965959289093,-0.0039858587762011,0.0020485007378059,0.0087331915493809,0.004254665109414,0.0005494918998443,-0.0029727568723487,-0.0019230832572258,-0.0014174647812625,0.0010887840073817,-0.0017488600375141,-0.0022790903709014,-0.0028736071521257,-0.0033744637295003,0.003876379179206,0.0067540695665723,0.0029625838364749,0.0018731729050238,0.0002082428553833,-3.0093676937397225e-05,-0.0016387538566606,-0.0046023176381967,-0.0087309222268442,-0.0088415293797584,0.0003977370294918,0.0121105785322893,0.0143472741136068,0.0067618876668045,-0.0038288029987226,-0.0058034266753092,-0.0055727357282973,-0.0046978630326165,-0.0045541069182791,-0.0074092892594133,0.0059013080673831,0.0081078646449813,0.0033189986526709,0.003542449841264,0.0042102668535852,-0.001160250315267,-0.0020435721889716,-0.0052706458659844,-0.0059744571636232,-0.0046399582569382,-0.0002100549896222,0.0027569634618772,0.0065860865753269,0.0033906032688923,-0.003182860189064,0.0073788941007774,0.0050078613767165,-0.0029255655530027,-0.010235188632518,-0.008428343447121,-0.0039309681982713,-0.0004403672195386,0.010398468238374,0.0113387706024583,0.0017448705756215,-0.0017997306764708,-0.0011271088105845,-0.0058386113189439,-0.0056825615863475,-0.0072286457696252,-0.0005445009171061,0.0103879409563616,0.012153309520951,-0.0047687362496794,-0.0026099804563215,0.0018810830586803,-0.0012583235782744,-0.0058483471223347,-0.012731161419286,0.0093760812979014,0.0122927479486669,-0.0071937280099817,4.683363139737521e-05,0.0040323132827857,0.0034455436537959,0.0027170732159241,-0.0080347010297065,-0.0104559820600675,-0.0041432806326805,0.0016189183040546,0.0083765263471367,0.0110865239020447,0.0015130061329465,0.0057691098394559,-0.004650497704268,-0.0117914862717354,-0.0184938538394157,-0.0015911129939804,0.0114331745142492,0.021542842966472,0.0093454892088314,-0.0093401466583232,-0.0160525847379774,-0.0067996952929087,0.0029790706549243,7.291386159033437e-05,0.0084608643581933,0.0105312606742501,0.0018391122412355,-0.0025937006157768,-0.0100542286184131,-0.0203097010988461,-0.0044373898622577,0.0161126782010709,0.020310386831028,0.0017436978822152,0.0041355707591331,-0.0022527451152861,-0.012953391372364,-0.0142118288029368,-0.0071618979726566,0.0001162293816734,0.0047861552650079,0.0146785527680367,0.0145771533414789,0.00593885990603,-0.0016980522864404,-0.0103272168864277,-0.0143167377160482,-0.0112870392756809,-0.0024363305085188,-0.0003625848018535,0.0079669306923386,0.0190757387886281,0.011157151589897,0.0012114864813321,-0.0057018435102303,-0.0108518864794689,-0.0106767064368599,-0.0065239951126615,-0.0017680106394214,0.0042528939955488,0.0031320224812936,0.007522664240466,0.0079165516671849,0.0066655654506043,0.0043759603844865,-0.0031579314584151,-0.0096506656643015,-0.0175225972628931,-0.015687291221898,0.0019467909241745,0.0148061753607452,0.017424238302737,0.0141503461035291,0.0006440426432614,-0.0093881762102164,-0.0087325260892663,-0.0093873196491524,-0.0059883864853091,-0.0029350315347856,0.002967777366325,0.0097664150336798,0.0049418244373912,0.0055718431118042,0.007062613168321,-0.0038094376783529,-0.0122431313996835,-0.0134163364464623,-0.0016299277139072,0.0137223090429266,0.0119176545792123,0.0028573569169254,-0.0089243242188557,-0.0088344898569606,-0.0047167881504552,-0.0017412590969479,0.0049793269255204,0.0095098166174302,0.0073594675292423,0.0036471447673632,-0.0041120530399256,-0.007502911176233,-0.0091167003360734,-0.0064260585736675,-0.0018551744017199,0.0058823668657776,0.0113768378279094,0.0060413848634942,0.0010869601482544,-0.000746267599345,-0.0009607155494277,-0.004840384136395,-0.0053252732821481,-0.0070459748633199,-0.0057152411804773,0.0041787918615288,0.0053088252150689,0.0145172817766482,0.0100631653572917,-0.0027788906499425,-0.0131624653928508,-0.0113005636448393,-0.0056356792450616,0.004615376595145,0.0053124673652222,0.0043979227481072,0.0056982245399146,0.0040124877728153,-0.004590329458082,-0.0063069618579878,-0.0020124475200738,-2.4655684664132487e-05,-0.0004102719999362,0.0007568474774155,-0.0010222628658297,0.0024872779148758,0.0032198565246764,0.0040540948585559,-0.0011457732471691,-0.0038856956725341,-0.0033189267311206,-0.0018457164643201,5.407312750349251e-05,0.0016350930355111,0.0022793511558488,0.0017201984105215,1.584798760753748e-05,-8.531405214989556e-05,-0.0007964508869453,-0.0012975956864354,0.0040202823857286,-0.0009380038594641,-0.0060000742098046,-0.0043874916513258,0.0005034745818609,0.0046694863472153,0.0066036205615774,0.0053983725501073,0.0013369498476918,-0.0039315438220369,-0.0079197277872035,-0.0084334316874433,-0.0047756144187226,0.0016729320098096,0.0079191588410348,0.0107276377869216,0.0082404934723459,0.0010305844921463,-0.0054795947454378,-0.0074025560892595,-0.0089368973272464,-0.0070391705825768,-0.0036702657860609,0.0048733671257056,0.0103281744429951,0.0109390712322937,0.007037570101179,0.0006313417600585,-0.0056017279200467,-0.0094505272447874,-0.0099534783223699,-0.0075359237955087,-0.0035276616069278,0.0079763750924363,0.0133805900284641,0.0095288464263206,0.0032540719132621,-0.0003085182104956,-0.0049102604980365,-0.0087415598874243,-0.0074915711230238,-0.0076645236631653,-0.0021939769623084,0.0045162835341332,0.0097286372492987,0.0109887490188788,0.0072934880703805,-0.0002529183913027,-0.0038162482864734,-0.0071772415356082,-0.010496770476964,-0.0109252060644902,-0.0030387865501711,0.0052278594478226,0.0108850301159904,0.0119987829955629,0.0083049594480473,0.0012769642384737,-0.0038995039819967,-0.0069433069778476,-0.0131272497497563,-0.0099676075916013,-0.0036530326772219,0.003555096151887,0.0092279766424952,0.011556596856429,0.0098857058527747,0.0048442640292434,-0.0019057888331835,-0.0081812099006396,-0.0119232497984607,-0.0118572722679312,-0.0079803188417577,0.0032427308965531,0.0121509850902874,0.0135631074695472,0.0083324400399324,0.003788380850125,-0.0029936889056283,-0.0089844990563055,-0.0115804228016658,-0.0098442179119991,-0.0048840161066387,0.0032971132185747,0.0143711770871908,0.014614878340921,0.0063499754922383,-0.0040459996128964,-0.0091066363238375,-0.0110907170609035,-0.008560626015577,-0.0021465617278441,0.0055404444864341,0.0109707467530101,0.011279574863348,0.005648325549908,-0.0041878362394899,-0.0145493742474313,-0.0066143254018643,-0.0047207257590651,0.0008420133797207,0.004647768127472,0.0076575164790732,0.0089822895644878,0.0031152781091088,-0.0011066483438553,-0.0057437771943158,-0.0081799332065178,-0.0072389084580491,-0.0035300708494696,0.0010985287286247,0.0070869676202739,0.0104834957565054,0.0063526876774291,0.0002063118120402,-0.0038291181185119,-0.0065547902752982,-0.0067804589831949,-0.0043582832732372,-0.0002823370439261,0.0037102573446975,0.0058614818265276,0.0051218063296731,0.0015934670080153,-0.0009658948453561,-0.0007177281825914,-0.0031829244598375,-0.0051377208877852,-0.0019950358585611,-8.393043294319014e-06,0.0014534688684082,0.0036989568998708,0.0037717286440901,0.0020716308351865,-0.0004584233011046,-0.0027451449349949,-0.0039527282092597,-0.0037317051194705,0.0002036195877476,0.0021776009694213,0.0038173506901285,0.0019266005952635,0.0013178211921298,-0.0001045583917707,-0.0015896436049192,-0.0024551152106998,-0.0024146498362475,-0.0016606716268828,-0.0006832943509593,7.582835741843337e-05,0.0053910213524965,0.003176437238597,0.0006694286878727,0.0002941175566242,-0.0006441354245808,-0.0020460918763477,-0.0033572311007224,-0.0037563869805175,-0.0026626426616458,-0.0002127626555207,0.0051634754819887,0.004642820296163,0.0046824330000881,0.0026066097651727,-0.0007719595378371,-0.0040585683856993,-0.0059120667278115,-0.0055802478494576,,,,
0.0074872368486069,0.0012558637270978,-0.0056715954823408,-0.0105858682533992,-0.0113901672963577,-0.0076167946206477,-0.0008816428525131,0.0055793527380131,0.0082596464405777,0.0124743812147249,0.008694611599113,0.0025762018982817,-0.0041594013688841,-0.0128025405361606,-0.0142795593179436,-0.0095884161318228,0.0004796254551357,0.0089093501811256,0.0143725542770649,0.012466927793883,0.0041844100774697,0.000546989844332,-0.010970685672403,-0.0141133224227348,-0.0124681267984262,-0.005447570735483,0.0055861379656641,0.013596862259675,0.0153376503202443,0.0101659994504718,0.0003145969611914,-0.0075095264268714,-0.0138809014043998,-0.0160340593656702,-0.0090158904668304,0.0018323766972102,0.0119794138911072,0.0170235350639052,0.0146110510895457,0.0056271375784449,-0.0060211309116481,-0.0151138128940109,-0.017599169074972,-0.0125835919538012,-0.0027089316567439,0.0146813751832539,0.0177739253730619,0.0118149145230966,0.0050484364470132,-0.003873648201312,-0.0106990374324906,-0.0125996713024762,-0.0093224187723233,-0.0029325113942009,0.0034621412490165,0.007228574676369,0.0146296700553693,0.0088378347406234,-0.0011185120499655,-0.0059746274821875,-0.0087680536060603,-0.0083512091940014,-0.0047965256136007,0.00054182913456,0.0055056770889626,0.0079827488753077,0.0067931896732389,0.0022413525911327,-0.0039050137519292,-0.0016764756546757,-0.0061680637548943,-0.0042468561918159,-0.0043652463321233,0.0011091836210582,0.0051325021110051,0.0064632114713611,0.005004171565606,0.0015318730699599,-0.002748164795075,-0.0065485782799121,-0.0038136147327419,-0.001080605660551,-0.0009337021250678,-0.0016442543131223,0.002632158848189,0.0054942850583655,0.0058825404228713,0.0035707842393671,-0.0005994102680076,-0.0048781154879105,-0.0072867930662612,-0.0065814509573361,-0.0029691092797031,0.0019091688698892,0.0082804369751991,0.0068700406453075,0.0047633919289425,0.000584928171596,-0.0036121728754826,-0.0059082215521888,-0.0054284245414428,-0.0026693853383937,0.0008332881229781,0.00327231588226,0.0033972209564303,0.0010489552171818,-0.0027849976083066,0.003380113172942,0.0038508593412921,0.0016884250538307,-0.0039352933984544,-0.0044884897753442,-0.002938115986258,-0.0016319854523579,-5.3788147734884893e-05,0.0019220525392446,0.0035582112660038,0.0034292850474963,0.0002656423003783,0.0014363343448132,-0.0013084416731548,0.0002018773359109,-0.003816346701633,-0.0049096895778702,-0.0019869822966725,-0.0008732760869986,0.0051175792793131,0.0066685550954807,0.0040376318518237,-0.0006931054525791,-0.0047814172577955,-0.003689288199254,-0.0045026535739455,-0.000946495528412,0.0024716540351436,0.004110997645249,0.0034809074601506,0.0013217290934615,-0.000983318269541,-0.0023046402813551,-0.0024421475847897,-0.002163756200877,-0.0025405215655865,0.0033930153969406,0.003883898598096,0.0004143550851967,0.0011613976384263,-0.003744502497303,-0.0006592054519971,0.0014803656658485,0.0016968665007227,0.000153480531012,-0.0019358978572253,-0.0030438590824209,-0.0022914462454131,-9.726024626095498e-06,0.0049633013918556,0.0035959582974259,0.0025979880616962,-6.834057087311304e-05,-0.0029493928994654,-0.0044669997574257,-0.0038084761324981,-0.0013303574141581,0.0016763764748441,0.0036755450733728,0.0036646204858395,0.0016770882420652,0.0012606948839434,-0.0011004404212034,-0.0043027660302175,-0.00315292490025,-0.0008534363315814,0.0014141245143703,0.0025619196002427,0.002095359454056,0.0003317487893049,-0.0017543962806198,-0.0029886873228504,-0.0025590721798114,0.0020426701953233,0.0023844531614253,0.0044188285270713,0.0042337893547908,0.001361173668968,-0.0032906858668263,-0.007624868949169,-0.0091903094582317,-0.0064072506787139,0.0003594085090445,0.0085189992384666,0.0141525817116522,0.0138731759727792,0.0067743503920569,-0.0046574589478684,-0.0153618072432234,-0.020026478602993,-0.0158024347805638,-0.0039791474814529,0.0103602627933559,0.0206594339236099,0.0220669960091332,0.0138365297153077,-0.0003119332916981,-0.014037370222013,-0.0214276576961044,-0.019680156875041,-0.0101385772473889,0.0026679631301796,0.0133297913958424,0.0179645723141473,0.0155892883613878,0.0080052278640376,-0.0014322174871429,-0.0093407964022713,-0.0134318785246896,-0.0129521928629192,-0.0085506507831565,-0.0018270134490313,0.0051930974144878,0.0105096659085511,0.0125252055649749,0.0104390272737729,0.0046515607131573,-0.0030649856267778,-0.0099553862910258,-0.0132820205296752,-0.0115376684465019,-0.0052333867418789,0.0031937544535985,0.0103531068696597,0.0133248578845078,0.010910146918178,0.0041567725536616,-0.0040861681927413,-0.0104049157328028,-0.0122966231032168,-0.009211174228235,-0.0026985777111041,0.0043708552125785,0.0116024433802369,0.0097616826703513,0.0063872058726245,0.0006616392474221,-0.0049031526419193,-0.0080963417047382,-0.0078951612801995,-0.0047353695042498,-0.000144465442262,0.0040029077708212,0.0062400123752233,0.0059831543362077,0.0036131727654748,0.0002131771710324,-0.0028970530628236,-0.0046585341619748,-0.0046286960343724,-0.0030597214171711,-0.0006752711542309,0.0017182361861587,0.0035395958180018,0.0044531904833175,0.0040877376524338,0.0016786092074865,-0.0015283404813856,-0.0069874312789169,-0.0104134326874871,-0.0010103481589948,0.0068987362224881,0.0120851234696191,0.0031329283373665,-0.0036067751153183,-0.0079792425099485,-0.0062813312644653,0.0016547874506282,0.0026211766669839,0.0074247636963571,0.0027716158063144,-0.0139953884041252,0.0015337041985026,0.003601330095761,0.0091974640902168,0.0060095252473665,-0.0053944259347207,-0.0096994316550478,-0.0105265000036933,-0.0080510680110025,0.0070283918070138,0.0123923230883245,0.0224494598714671,0.0036929875219517,-0.0174405625318621,-0.0193941473223372,-0.0020530364003351,0.0092060857215705,0.006166144425312,-0.001448412233995,-0.0058144194151988,-0.0078063650570606,0.0149739173483197,0.0172528638183625,0.0005830244061607,-0.0247528335543951,-0.0057583218603281,0.0049964678727081,0.0040550728857669,0.004237833930008,-0.003703777085379,0.000122327682762,-0.0009142792923588,0.0032103805878525,0.0019560564910933,0.0064872955626421,-0.0054514033320691,-0.0185557927740918,-0.0018732409453953,0.0220303071728462,0.0160354152286878,-0.0062147607623476,-0.0128032782987061,-0.020576844619077,-0.0063558711471161,0.0102343286881137,0.0164374476489975,0.0091622983792124,0.0057914396036833,-0.0012746933332363,-0.0033253973184405,-0.0109838824214862,-0.0186513693666749,-0.0069217428417417,0.0063969828271309,0.0133723267243968,0.0119924873591165,0.0053755593716986,9.8949934046305e-05,-0.0025595064193877,-0.0042316284830074,-0.0080512086022723,-0.0089169828667831,-0.0016373758807083,0.0019225322545578,0.0035823164485905,0.0060515017852046,0.0083179742282524,0.0020553641256119,-0.0044068909601008,-0.0033083795054325,-0.0018613572618004,0.0021348564467132,-0.0015811481263792,-0.0064607256379769,-0.00125866872751,-0.0007375729714773,-0.0021890592564347,0.0079589048661394,0.0094735993885886,0.0063717139014603,-0.0004018965914969,-0.0083844210460558,-0.0089324055420837,-0.0084720189033122,-0.0011677948351398,0.0070960415564857,0.0062653249230815,0.006359292941947,0.0006312322727586,-0.0027833301514156,-0.0032352078805895,-0.002927074821049,-0.0025203596344274,0.0043023778217105,0.0048651741081347,-0.0009635565809687,-0.0055558149827666,-0.0027337699859432,-0.0012413763317827,-0.0003505732357589,0.0046931230056314,0.0056434658769549,0.0016676666988168,-0.000984254937403,-0.0003273999683226,-0.0012288885358441,-0.003236696365797,-0.0031266512635337,-0.00500637944114,-0.0006018476611264,0.0031655223807467,0.0036223009725425,0.0017487229089698,0.0032767795917577,0.0071499188051983,0.0061255512983647,-0.0033099804398253,-0.011958292517467,-0.0130754943806904,-0.0105341208921667,0.0001367308235385,0.0120296305021869,0.0148522591306862,0.0106848992276717,0.0059905223985036,0.0024545088924369,-0.0108933416647719,-0.0177817732160862,-0.0155791622311507,-0.0070839926374521,0.004446224154369,0.0141122316115019,0.0176437633825854,0.01595068386645,0.0033653065812299,-0.008216335506427,-0.0162820204285298,-0.0173848721679564,-0.0111465695751451,-0.0004040259281545,0.0100805941217068,0.0182459332173147,0.0142075458134243,0.0062545036671528,-0.0020202305157558,-0.0108635402577614,-0.0165347082627624,-0.0128883793459686,-0.00419326164064,0.00576552344007,0.0128367168687143,0.0142328933211254,0.0096326414342556,0.0012137325645815,-0.007358059551375,-0.0125197053603924,-0.0122883734487238,-0.00700957965567,0.0009036280117591,0.008080970966292,0.0116423411228051,0.0103499860078701,0.0049974714244846,-0.0020641504976334,-0.0079795585609352,-0.0105316994995863,-0.0089235284969277,-0.0039605803937882,0.0023547085502359,0.0076146759135772,0.0098820939907723,0.0083480867617837,0.0035724176427585,-0.0027258023759385,-0.0057393961825706,-0.010863594295356,-0.0094606802554682,-0.0043353338553324,0.0027301617738542,0.0089910593643923,0.0117809268901485,0.0097031927519214,0.0033836525563663,-0.0046525417242116,-0.0109972090889021,-0.0128455318992642,-0.0092881844639759,-0.0017983681857346,0.0088505414323906,0.0139979252459719,0.0112485754820307,0.0056620647175457,-0.0026716840446276,-0.0098530839533028,-0.0125710530091678,-0.0096554380363121,-0.0025463566152391,0.0054475112921272,0.0106756431961682,0.01074142343514,0.0055031365412359,-0.000380157266787,-0.0034741827604439,-0.0077399554671089,-0.0115219739474314,-0.0081547904158334,1.663726133307812e-05,0.0073503306624588,0.0112082701251377,0.0103755055563725,0.0054326164543291,-0.0015341540257629,-0.0077624333509058,-0.0108661659275233,-0.0097267796100513,-0.0049077181631145,0.0015507986477512,0.0068938856447773,0.0087418101360573,0.0110316163624173,0.009798203064033,0.0001617994075529,-0.0102281630938305,-0.0143097975605992,-0.0113030033670802,-0.0047843649742695,0.0028210699963071,0.0087455549181341,0.0110142724017672,0.0091583729165636,0.0042401874535985,-0.0017056391050892,-0.0065021282318537,-0.0086014164937299,-0.0075566603190635,-0.0040699374407434,0.0003764277305449,0.0041494638484741,0.0060864114938397,,,
0.0131513748505216,0.0113979078393737,0.0088123686396889,-0.0026533633086497,-0.0118486451341387,-0.0148934371101905,-0.0140638380532843,-0.0075660380217523,0.005250089712128,0.0140185639139419,0.0157830537497801,0.0137013880940539,0.0080339944214266,-0.0063124362560023,-0.018231932220952,-0.0218560321401989,-0.0126309501555823,-0.0001287843166571,0.0136577191418117,0.0184267111792863,0.016010024065086,0.0072694208656411,-0.0022797891798793,-0.0130240031353742,-0.0146630110689614,-0.0125564157721572,-0.0064407096783699,0.0019683145289211,0.0097065615423567,0.0138493772000624,0.0127544299326533,0.006745452952983,-0.0020047420701681,-0.0102956815492334,-0.0125868326429341,-0.0097526181126132,-0.0067913183872005,-0.001187829591125,0.0090740878895378,0.0112719254986738,0.0114809271896019,0.0074475923083936,0.0008454928849507,-0.0059405520926219,-0.0106530987449002,-0.0118214104516139,-0.0091055554643049,-0.0033170597574836,0.0038219523900332,0.0101024778672926,0.0133777163938658,0.012197365874608,0.006427743377129,-0.0023826731584656,-0.0112126671223125,-0.0165164455187344,-0.0156832057288363,-0.0083832597352368,0.0029355452193866,0.0138174874916887,0.0196224448159573,0.0176004499638716,0.0082226022547664,-0.0048926034337064,-0.0164477008921737,-0.0216743703900351,-0.0158392046886051,-0.0077267301664459,0.0083374762050899,0.0167571481586049,0.0204994876821211,0.0155380209343515,0.0040464182449046,-0.0090140161207929,-0.0180264397377004,-0.019153857040164,-0.012032289881697,4.161772364608091e-05,0.0115737523511728,0.0173933480042766,0.0150830281378797,0.0061134504713343,-0.0049425759053891,-0.0127503544280475,-0.0138813207341018,-0.0083954703457444,0.0004436816204781,0.0080496555207411,0.0108932998282251,0.0081329270912545,0.0017505301997498,-0.004726491395212,-0.00813375468435,-0.0071779383916863,-0.0028293590432633,0.0024471977448266,0.0060610608442282,0.0065003000614311,0.0038566694067496,-0.0004104519653044,-0.0042352226441155,-0.0058833378966186,-0.0047103208396127,-0.0014249974580287,0.0022914663193839,0.0046486478112636,0.0046430105088069,0.0025057680350477,-0.0005126098462244,-0.0028589212937276,-0.0034853477505391,-0.0023346528325885,-0.0002802199258958,0.0014235290732014,0.001874452680422,0.0010243703756596,-0.0003478522289651,-0.0011743384233183,-0.0008078449451749,0.0005445823731362,0.0019340163242596,0.0022625833949263,0.0010070401409214,-0.0013608311321834,-0.0035393023722978,-0.0041085061103824,-0.0024093244936325,0.0009483592168591,0.004310381764547,0.0058448296423029,0.0045259223052573,0.0006352790011997,-0.004463261548622,-0.0090093204660342,-0.0041318199474934,0.0008684257019483,0.0034708886884621,0.0048643087172711,0.0033822547665254,0.0002893272956446,7.58093060639152e-05,-0.0017075707903454,-0.0041585288722194,-0.0015382820808145,0.0016633757302861,0.0003762014515306,-0.0010880276893804,-0.003270332163453,0.0035480495964812,0.0049775848008492,0.0012544635863094,-0.0004337818666751,-0.0002687666393586,-0.0033658475215916,-0.0044109762921718,-0.0001546232620466,-0.0017249774696038,0.0017994037246034,0.0034331613307313,0.0027059853571205,0.0056372326867015,0.0026380511925043,-0.0011292392057565,-0.0105546412649465,-0.0216050027172453,0.0035910074800551,0.0171471011000459,0.0181451238130657,0.0042021330397133,-0.0095279496687433,-0.0159438716203424,-0.0063860848306848,0.0010382003575994,0.0046104725270733,0.0064469191384125,0.0041400614811256,0.0056982762379867,-0.0058078299034948,-0.0138158356491466,0.0067659808980562,0.0129943459567183,-0.0010310961635028,-0.021832077292986,-0.0029638664707523,0.0126952506156653,0.0097470255691522,0.0049898791656307,-0.0022489933784509,-0.0193055398470558,-0.0057970345071447,0.0119403283931521,0.0127499536284672,0.0051331510371585,-0.007397381439325,-0.0132708864947129,-0.0062590771190222,0.0041585211514579,0.0051393573374627,-0.0001304699837544,0.004812264787817,0.0151764138506252,-0.0032445730857726,-0.0084335016701055,-0.0061399678279312,-0.015153533554528,-0.0034921288337569,0.0125858220585728,0.0084257320783905,0.0112147610843211,0.0070994200950781,-0.007578467963906,-0.0197633565328047,-0.004179446644598,0.008744579494666,-0.004244933507652,0.0017828517640577,0.0059351764939346,0.0073266307333597,0.0040895067773363,-0.0050449500589469,-0.0133135835497042,-0.000628883689776,0.0064951540930036,0.0039443927486648,-0.0039638298221603,-0.0031749253668822,-0.0032937556582779,-0.0012726942659596,0.0170236714063164,0.0131105235104694,-0.0040645511320501,-0.0200465628627787,-0.0220271744292488,0.0071332226427194,0.0065412116762495,0.0134638495439989,0.0124860922244614,-0.0003765246410205,-0.0063469709557599,-0.0019823695164639,-0.006209459839332,-0.013417939007802,-0.0079975243667475,0.0132903221322204,0.0110872954571437,0.0074194429480728,-0.0034971551769819,-0.0026866023750304,0.0031136518436606,-0.0048944619801821,-0.0035627771324927,-0.0073932002469952,-0.0034865337576296,0.0033163488240914,0.0100401437581336,0.0041569821685257,-0.0038049218530365,0.0119268264962629,-0.0024813847770937,-0.0116306698694084,-0.0103199824504603,-0.0077438330848416,0.0077570563309738,0.0174125118216832,0.0063015357953365,-0.0001625136232715,-0.0111739029874291,-0.0064944596694872,-0.004757100273313,0.0030632219256408,0.0053916164355085,0.0042957634584027,-0.0039182980983295,0.0075261443699369,0.0028859246452085,-0.0105605470709667,-0.0069795111187725,0.0012407814355732,0.0054060673488234,0.0056511522385417,-0.0007299656083123,-0.008608283610859,-0.0009616815366391,0.0044394148054904,0.0082063970486163,0.0027451080371082,-0.0017277705738009,-0.0091291562145918,-0.0091230171559554,-0.0008954418100758,0.0051881806375727,0.0072439498416241,0.0035001186509631,0.0038752774498612,-0.0014991895312877,-0.0032165310276661,-0.0043615956573538,-0.0069449439324482,-0.0003988694230512,0.0046033142743329,0.0041281947300701,0.0032453211340661,0.0004635318741,-0.0032127633122249,-0.0017687172334249,-3.1625668871509703e-06,-0.0012903333594374,-0.0011376664999362,0.0022401724019268,0.0020865780371081,-0.0003522212729407,-0.0002156564822268,0.0024530709941973,-0.0016888733532427,-0.0027937776691788,-0.0018398736400795,-0.0011998111182311,-0.0010160462281695,0.0024682603125431,0.0061842368533041,0.0035043410664152,-0.0006455259852605,-0.000263032693203,-0.0026902875138261,-0.006492217997977,-0.0097216099652565,-0.001082258268778,0.0074424766227873,0.0099630369748585,0.0070097919190692,0.0046098873231621,-0.0045372925954688,-0.0092153982648805,-0.0097431630591608,-0.0025101716110318,0.0022545981066648,0.0025163891050076,0.00547942171478,0.0045170654162264,-0.0002900612233097,0.005155041754008,0.004104491586162,-0.0037908898797417,-0.0104993405234293,-0.0119356204598997,-0.0068900011355389,0.0058526673551989,0.0126710306022319,0.0124861535066639,0.0065687668129988,-0.0001843447828465,-0.0060979861505325,-0.0108837195435346,-0.011817599294573,-0.0077314128131879,0.0001524428270351,0.0085746887590969,0.01370309222913,0.0130061570586275,0.0065325418130637,-0.0031386762560316,-0.0122367945595605,-0.0175765587540065,-0.0079705460066465,0.0011792683313302,0.0050361852970402,0.0033036197872261,0.0132753088055494,0.0125129962710664,0.0043462335692483,-0.0049355759194794,-0.0109823585115916,-0.0120870581242698,-0.0100123600098371,-0.0053607110247701,0.007378589488674,0.0108651991297589,0.0127654316130863,0.0053334833177803,0.0047818125577579,-0.0024636529483601,-0.0105694587766766,-0.0153937904338713,-0.0106424792681162,-0.0014956822285268,0.010984161386803,0.0143525228075461,0.0076434083649905,0.0016194959325583,-0.0011945267580933,-0.0026688303710529,-0.0079656508773652,-0.0095736763151797,-0.0112034500995636,0.0069463308615023,0.0134083664946029,0.0067331773977622,-0.0011902825618391,0.0034346480451776,-0.0013005557789773,-0.0075283007948939,-0.0092837218407568,-0.0048189753901368,0.0032750362691963,0.004335826472396,0.0158154280953061,0.0079921625272974,-0.003405553457571,-0.0112197362051446,-0.0160051558676543,-0.0064939325480753,0.0032861183311748,0.0133132922955484,0.008160255277425,0.0040929083424411,0.0032755703822083,-0.0038751318358343,-0.0020482680765078,-0.0060222898704686,-0.0116313311766289,-0.010451405455728,0.0041347604755994,0.0127027218977674,0.011068978550453,0.00474917687706,0.0013962931519906,0.0007661665717142,-0.0074334385640933,-0.0094724384329138,-0.0083573345604522,-0.0039366493346026,-0.0001710392378809,0.0091150299589258,0.0100826720551162,0.0074495407235665,0.0025348117986158,-0.0037253413967863,-0.0043388388417955,-0.005875186967053,-0.0066458834925318,-0.0052238398925477,-0.0014562135102302,0.0032727294812772,0.0092322132988569,0.011968263939271,0.0038246066206204,-0.0017174395349373,-0.0070358900356823,-0.0095683238333918,-0.0080059236482602,-0.0029307023800948,0.0034912460889801,0.0084834252162127,0.0097461778400338,0.0061920355177609,-0.0018066013566748,-0.0100033586243376,-0.0011629662157221,-0.0064489615882193,-0.0071051119301275,0.0021829774327477,0.0079519931463563,0.0099371272356893,0.0071419387031962,-0.00371741640964,-0.0141027763796561,-0.0053500018916976,0.0050103769983941,0.0051935320829096,0.0008106078164335,-0.0031592540056405,-0.0005772124226304,-0.0011627134978961,0.0023033369043317,-0.0022884469425339,0.0033406954104438,0.008900881632123,0.0029433701544399,-0.0082116852119059,-0.0161065779879499,-0.0007567146896597,0.0072198853345165,0.0084859730456557,-0.0007124964486088,-0.0042537227441376,0.0070655048964505,0.0008530725173539,-0.0040907816368622,-0.0004447795879348,-0.0007723806160297,-0.0007220208559171,0.0004106849849104,-0.003635079243667,-0.0098869317226844,0.0045523262397592,0.0061991767346968,0.0062386125760724,0.0096926002352654,0.0025346964216483,-0.0064064004170499,-0.0063465899152836,-0.0058788845067084,-0.0126935420787309,-0.0056414534792547,-0.007214763826268,0.0157357175520744,0.0285275478854249,0.0211205881738289,0.003541664659849,-0.0157659019241331,-0.032103163332352,-0.03501995849834,-0.0023340293447152,0.0134379247003931,0.0247875518423014,0.0271692542658643,,,,
