-0.002633229858766,-0.0027303478856181,0.0010379570044531,0.0052984547904644,0.0029492595246913,0.0014022373202857,-0.0027436665445419,-0.0009491196906546,0.0003180522995495,-0.0027703641229782,-0.0034435104835951,-0.0018950097714767,-0.0002563812890346,0.0034822231574229,0.0022768440908151,0.0053833473747435,0.0038743710822176,0.0016434427992643,-0.0047186733402138,-0.007523695686084,-0.0044322165903232,-0.0002264858476986,-0.0021786765448871,0.0019984602420149,0.0025942968110721,0.0012112543229317,0.0113535772907284,0.0073057002903369,0.0027645046567163,-0.0098389251210112,-0.0171108491046623,-0.0066248638758947,0.0027464805710295,0.0031434286733109,0.0016633312062516,0.0053266099958995,0.0085768655925435,0.0082760884479985,0.0025109802387953,-0.0066293028567907,-0.0103123337344389,-0.0034671098451078,-0.0031240357683269,-0.0056736286004437,-0.0143894594558505,0.008516340062777,0.0189061378014009,0.0199473834516538,0.0100493230690404,-0.0034551590111692,-0.0164567838286018,-0.0182676068355326,-0.0218777579179645,-0.014590687325071,0.0249641571077125,0.0235089627687854,0.0163997573474502,0.0075225322250103,-0.0027672331177115,-0.0115919850994101,-0.0253512921606947,-0.0224738165795111,0.0102616533294708,0.0182427695560567,0.0093905128513405,0.0078742642180814,0.0036409652239327,-0.0049288381315484,-0.0090928419788637,-0.0147548735249827,0.0026975645582796,0.0053015579590349,0.0045735347525731,0.0061874409171076,-0.00026991964382,-0.0008670787590132,0.0061006023566571,-0.0126980093633328,-0.0196333567211736,0.00798289564436,0.0137413399887687,-0.0039011723273052,0.0134672077393194,0.014328707657592,-0.0020606134214494,-0.014830438419909,-0.0187715395490431,-0.0135029420161027,-0.0082248507884409,0.0106086094717748,0.0188289034766995,0.0270927644278619,0.0247412795673545,-0.0047013939424353,-0.0343537972134872,-0.0330037354729183,-0.0177295586739209,0.0028936573163607,0.0150834337648179,0.0318441121559521,0.0196992322997861,0.0011460733028961,-0.000962216710831,-0.0131840386000658,-0.0188135321348044,-0.0158352256109476,-0.0104552766664534,0.005328003796699,0.0171293763516443,0.0133641845991163,0.0075396532883988,0.0059142021379054,0.004797065072888,-0.0048427978933529,-0.0154839710327335,-0.0173701676768077,-0.0118837558544509,-0.0151625081707358,0.0165000073065118,0.037943607691983,0.0291754851997605,-0.0023859361921514,-0.0276236022053269,-0.0365720075239208,-0.0047088364632999,0.0237775885632246,0.0172284906332005,-0.0037588386102191,-0.0183950445038179,-0.0106516010720354,0.0048258522804412,0.0215434408641392,0.0162109254353362,0.0033844061311174,-0.0080914643638855,-0.0229192149207781,0.0017133685158932,0.004278491585999,-0.0222148185331612,-0.022473145802645,0.0139371056299899,0.0366209843037217,0.0312209118348032,-0.0025201922919001,-0.0090782365654041,0.0152088758547783,-0.0114570840528013,-0.0298817919598064,-0.1238948577931597,-0.0180006159373805,0.1180839916963988,0.100409607664181,0.0490030004088879,-0.0240187395991535,-0.0563091135268687,-0.0740570291406338,-0.0763601446821064,0.0182261784668358,0.0195572947804349,0.0716653579549714,0.0429912537427716,0.0070908632285178,-0.0076700242584502,0.0027470836813073,-0.0180026971214184,-0.0348955304264301,-0.0404524718168743,-0.0530779082846867,0.0016855229818321,0.0813157024704604,0.0709024593980234,0.0368548389714825,-0.0053377265867064,-0.0726238464377412,-0.0484369501661036,0.0128133015916246,-0.0392870378969444,0.0044151735069732,0.0347069717723788,0.027292166813062,0.0249004795638348,-0.0066504696076402,-0.0069137684906529,0.0183064842195089,0.0214088964941976,-0.0220284037746651,-0.1075954666751801,-0.0755842311469688,0.077889276835802,0.0775109428122503,0.070249792391831,0.0285213251729019,-0.0287641069023723,-0.0659235578869543,-0.0651020815731988,-0.0362228573431687,0.0091177973253831,0.0560084522132401,0.0727928637926233,0.0293810302442079,-0.0390105141196224,-0.0797928857873499,0.0157286626011368,0.0403367183130048,0.017818362554623,-0.0070815882935223,-0.0864246852548496,-0.0242564837959686,0.0879305355649764,0.0352496452258833,0.0075397160389052,-0.0065107517108234,-0.034562624747177,-0.0563478315535798,0.017962491599272,0.0665918025989754,-0.0149511296007447,-0.0735434867626753,0.0198509352812263,0.0524523249215864,0.0508248369467166,-0.0030806835437384,-0.0693952813248914,-0.077331382555458,0.0079941727064725,0.0727301740721127,0.0367460440635078,-0.0181562596614582,0.0226407319582886,0.0237930547729404,-0.0434729230583063,-0.0666854851106447,-0.0516281733604473,-0.0017510671717353,0.0796965576819928,0.1046675511432865,0.057192833492922,-0.0292569489398733,-0.1222529800923586,-0.1641771034757109,0.0616462292578747,0.0982655656478738,0.0662260957332238,0.0208515284247438,-0.0327454870207551,-0.0381876977434396,-0.0117549633383822,-0.0108602343027133,-0.0074998554851224,0.023904956120385,0.0294842717528159,-0.0217415110650128,-0.0178543251452071,-0.0082539801870426,-0.0067898296616408,0.0173979781270659,0.0401556425933592,0.045813054300607,0.0032949810393136,-0.0836140891312268,-0.094821129298338,-0.0291916299743706,0.1160438076487335,0.0929726067590294,0.0085153263857949,-0.0627901277718775,-0.0453882387553758,-0.0144891919077433,0.0158729198992931,0.0284648915653566,0.0032899443334379,-0.0183727452827384,-0.0174870991499523,0.00605175303662,0.0287095289131494,0.0140635500177491,-0.0041566892862107,-0.0154259536509201,-0.0208567272345757,-0.0277738089927369,0.0305551058550234,0.047364143996961,0.0089992353971335,-0.0389896279973257,-0.0351097051111835,-0.0209941358297091,0.020069757348624,0.0392521980889294,0.0329233290944203,0.0131067979808013,-0.0157364825404143,-0.0518990058163398,-0.0439283704249804,-0.0084073602893994,0.0545554336119225,0.0408624052000094,0.0025542155048923,-0.0232158526401663,-0.0046611745366782,0.0124377618447139,0.0035586397337703,-0.0211761753060407,-0.0485860941531876,-0.0060278266545302,0.0349598778376659,0.0426502581609454,0.0273075127585268,0.0004979154928787,-0.0263626525606229,-0.0354702556797387,-0.0340319818388945,-0.0114437412935749,0.0286258848399789,0.0387637466783996,0.0303924574861311,0.0151780052755645,-0.0274287913819882,-0.0711825905368487,0.0039428397495193,0.0385386908738857,0.0222802038124017,-0.0093623974340288,-0.0395854562743699,-0.0223794330220048,0.049905036303059,0.0489682636883921,0.0070687955966297,-0.0445359611635062,-0.0433986461975209,-0.0069908125198576,0.011754767631749,0.0193854663677063,0.0176348726207708,0.005252421601377,-0.0061444832099598,-0.0058705620404711,0.0111636729916126,0.0066659628355693,-0.0170640703835718,-0.0329479669187025,-0.0072294448922259,0.0026428568983435,0.0285679923519898,0.0305784501860481,0.0119951812383804,-0.0081095681875643,-0.0177174994388116,-0.0190116652972538,-0.0162010977721859,-0.012520610294821,0.0016862458895282,0.0244357113827942,0.0283652330174992,0.0155043443269,-0.0035212849019087,-0.0145718675429775,-0.01991781503959,-0.0181849708763607,-0.0057007712777334,0.0092542743825333,0.0136303798923678,-0.001446740684086,0.0104309328919635,0.017927232078918,0.0051300868226497,-0.0070967190742264,-0.0154459084009067,-0.0195457202025942,-0.0167637064721071,-0.0062991708913402,0.0095450581514338,0.0380538326369011,0.0319189562213015,-0.0004313658645684,-0.0264405566613982,-0.014924099286471,-0.0205705360786855,-0.0037198402321941,0.0010730991245052,0.0080478612339433,0.014458765368058,0.0136913888120518,0.0045708859447189,-0.0057153205668401,0.011110954796778,-0.0125033424263657,-0.0260851014231529,-0.0008430156672566,-0.0038249853890893,-0.0016768549631924,0.0162436027758967,0.0151057270919337,0.0017186539150508,0.0048901975246639,0.0104437909323684,-0.0051448026621482,-0.0209644401999048,-0.0292371982490682,-0.0121871893007184,0.0090110715447203,0.0252307523829832,0.0281798572289318,0.0149048540150162,0.0004211185159591,-0.0221468371361947,-0.0280519746440714,-0.0078687487002225,-0.0012412542184333,0.0002570152867942,0.007879535319454,0.0150314337076429,0.016385274208946,0.0102886221871719,-0.0018611929302503,-0.0124669625491288,-0.0126173346472525,-0.0219628877929832,-0.0099827448014062,0.0047392226282552,0.0062076827075841,0.0276403216053593,0.0231716916636264,0.0123889050863369,-0.0126775396080395,-0.0274789631142695,-0.0261377963130376,-0.0178064785196029,0.0111479620791085,0.0198582399305494,0.0212421364056556,0.0166455593097213,-0.0002352748851103,-0.0176455814963911,-0.0144944747757073,-0.0061055509403139,0.0007137706564321,0.0020391669504849,0.0098873530035415,0.0076972898259056,-0.0046406449165549,-0.0282236339584674,-0.0022037877570286,0.035216212608781,0.02485205341913,-0.0026609898238129,-0.0291390837933517,-0.0162458494725418,-0.0059863731135599,-0.0030689572017537,0.0157150735358791,0.0114062212026285,-0.000935151314864,0.0035945168294589,0.0019558773242201,0.0025728588909025,-0.0041536132021741,-0.0041240791557997,-0.0075597375265944,-0.0051870299256866,-0.0063318630874238,0.0021839943328523,0.0036436453399632,0.0135974417561536,0.0120994331713859,0.0048930602000795,-0.0021807768236793,-0.0125941660646703,-0.0156978128483432,-0.0121151071741744,-0.0013185095372007,0.0160095232052724,0.0158881444241958,0.0088363011850421,-0.004428642024176,-0.0231783939743395,-3.5379980520144775e-05,0.0142373606178763,0.0112008669182434,-0.0003920597783201,-0.0119265768125176,-0.020556717824718,-0.0093906371264408,0.0053153412315747,0.0196484793446287,0.0212336855419345,0.0089440455276084,-0.0038747738086256,-0.0177766065421326,-0.0180099901343008,-0.0055668375895704,0.0014691187589542,-0.0025478110173322,-0.0045935115403565,0.0230894834534309,0.0287203169139976,0.0120401530367602,-0.0084184871980394,-0.0259541554381525,-0.0301393233614842,-0.0340884865352823,0.0074420356412411,0.0395485788060695,0.0416334297756921,0.0212247117631527,-0.0063153598828125,-0.0257861552263858,-0.0331079333943273,-0.0283404134156794,-0.0093836453363375,0.0195138363713451,0.0296073700075975,0.0271350964329077,0.0141204449361872,0.0003897794436237,-0.0170273246922312,-0.0315527748723653,,,,
0.0107242023381066,0.0128621356028607,0.0074101799102703,-0.0022261756390469,-0.0056367939436806,-0.0162103204228081,-0.0091049230756522,0.0012773782033402,0.0138362536333907,0.0074483337023552,0.0029337745464746,-0.0030663929607298,-0.0058578428464881,-0.0013513886282967,0.0003370770347907,0.0048709606730829,-0.002860370910336,-0.006882425508299,-0.0018288506430474,0.0081412797941193,0.0037726367485243,0.0001441717634993,-0.0023331400579165,-0.0039002565375235,0.0022262505858709,-0.0007653185749246,-0.0064437944292765,0.0078243241859159,0.0048523543618804,-0.0035857928590375,-0.0010933597822963,0.0011875689447745,0.0012095778587909,-0.0065526508806575,-0.0137831422901827,0.0053937642577201,0.0146936033242164,0.0099644051719676,0.0040579654606692,-0.0082015411378315,-0.010374708049468,-0.005792418949022,-0.0027082116514632,-0.0061237832767176,0.0062788667714745,0.0116953577093789,0.0090433857437548,0.0044023842502757,-0.004874447891769,-0.0073241382909626,-0.0046410207940233,-0.0057943368407501,-0.0124349688862492,0.0068329121936357,0.0142783453823791,0.0096469145066242,0.0045478125111906,-0.0028409368032967,-0.0111274551958904,-0.0152861043145978,-0.0100889009082692,0.0136088998566247,0.0179407777832707,0.013981064178077,0.0002307764371262,-0.0113138774369385,-0.0235150051421077,-0.0215834672815409,0.0102436100063141,0.0196259069935466,0.0190812320014414,0.013685274576336,-0.0021707171374501,-0.0243718738591373,-0.0070308686626187,-0.0112194470982027,0.0016150581860299,0.0035311969311896,0.0019967294285098,0.0095668228113557,0.0104257055335334,0.0008147614476522,0.0040786572799575,0.0002958329981884,-0.0129667621909315,-0.014129646683953,-0.006327023132952,0.0038940597701569,0.0020845951687408,0.0003876098808729,0.0152458999817299,0.0165867236670001,0.0029318509418536,-0.0032173248942502,-0.0084244879843995,-0.0197966135498329,-0.0278836397010204,-0.0054909103933831,0.0287911701617205,0.026106111997593,0.011557095308204,-0.003266991241984,-0.0001535031966956,-0.0098295397402856,-0.0171119704575277,-0.0141327638640401,-0.0099826406710291,-0.0117643421740669,0.0279196386342205,0.0382311432133444,0.0196355450688107,0.0002400363370195,-0.0231387354344743,-0.0434359247540199,-0.0309304230008404,0.0108003139184704,0.0263924184525566,0.0304602199080537,0.0207358359987204,-0.0001361851544169,-0.0211794594192512,-0.0350956915658578,-0.0013771418899086,0.0176156189570127,0.0118441532828651,-0.0016427343384106,-0.013472295479222,-0.0218863338765515,0.0104398257441804,0.0389353431956125,0.0217259988066056,-0.0077725935497857,-0.0336935558327143,-0.0253250381017479,-0.003111090502261,0.0001942235100386,0.0213433902387403,0.0222861759761646,0.0067780206067995,-0.014067229322866,0.0038767851170513,-0.0040406327214606,-0.0202306785706257,-0.0042876054509406,0.0063930243606065,0.0155478607030799,0.0019607357171708,-0.00864091500884,-0.0055362857390321,0.0017021640092551,-0.0043981762468372,0.0256440340688577,0.0122789822788264,-0.0178443747490206,-0.0262691063852242,-0.0032204881699406,-0.0031357665212336,0.0034387376968537,0.038180318585571,0.0190083123966092,-0.0167574097008624,-0.04275344973188,-0.0073691535627459,0.0044210713091796,0.0255855412430466,0.0214437485496617,0.0141333886199132,-0.0192767393308526,-0.0527703214799472,0.0133149467051452,0.009305984849416,0.0165412340063121,-0.0084861600175043,0.0068784101134159,-0.0001687311328588,0.0207761345112786,0.0049576960002921,-0.0294721732453347,-0.0076441440392562,-0.0186953033747662,-0.0198292589021015,0.0337023319108631,0.045064860230605,0.0171817099109406,-0.0224600068875266,-0.0388386810008547,-0.023376564582575,0.0160918210203285,0.0158742008721121,0.0225720050342092,5.476467133772808e-05,-0.0092399730804434,-0.0166852791403275,-0.0191504517208284,0.0147035295807125,0.0121004394868383,0.0094938286767081,0.017787471623129,-0.0042027275184917,-0.035353672729534,-0.0169883255504492,0.0078463374895504,0.0309755767644169,0.0090839934006232,-0.0346158801696562,0.002588023431445,0.0259247981274691,0.0138417862046994,-0.0116357149760886,-0.0215748863990358,-0.0105578358060237,-0.0017302826117127,0.0052387131359263,0.0077610516301109,0.0118076703323755,0.0098533374232955,0.0095174384226625,-0.0099690638307181,-0.0198184458577379,-0.008407488454648,0.0011952275190095,-0.0161531519430635,-0.0125045337132809,0.0593566101251301,0.0342128473014082,-0.0195529700475101,-0.0287777613400102,-0.0346921115971388,0.0030795539414386,0.019699247051515,-0.0047344087879431,-0.0011078553341467,0.0191796798555583,0.0358965778011147,0.0076309993873254,-0.0473560509731482,-0.0568009482335813,0.0016692718127594,0.0427328145429322,0.0317406975443175,-0.0031216976039198,0.0046972308739121,-0.0045253713811636,0.0016796431493735,-0.029028838960372,-0.0353644235105272,0.0093641936760661,0.0298731305141832,-0.0015334869685594,0.0080450812279726,0.026478262004639,0.0363376309373145,-0.0127345301839161,-0.0814998940314275,-0.0602579345073707,0.0366005126597221,0.0582199513435699,0.0289689393421962,-0.0224364236300602,0.0095731156196115,0.0169820203321592,-0.0225023770045503,-0.0367463251071086,-0.011436188537002,0.0016305013024517,0.0110724561999488,0.0401570452100894,0.0060453496122633,-0.0155691155345552,-0.0185293919712263,0.000468964788479,0.024175526514309,-0.0084089105532431,-0.0182535206264462,-0.0170349281381824,0.0234029229139777,0.0147376482045485,-0.0125308845507535,0.0130282089322983,-0.008995978010539,-0.0230585088709413,0.0075197424744454,0.0239017015120739,0.0288562997901464,-0.0066965922062594,-0.0677807955967185,-0.031868089052549,0.0302184789389559,0.0651659585532233,0.0397819319927574,-0.0299766054843024,-0.0448590138246851,-0.0456263020253742,-0.0078672425530769,0.0516078365176818,0.0538241630573696,0.0114783144792445,-0.0591887486696741,-0.0363755630187695,0.0180222870798985,0.0201131287845986,0.018432879744814,-0.0021116506609087,-0.038203840991556,-0.0008899890809354,0.0313630560520805,0.0169645982438103,-0.0113746815892517,-0.0315169925013236,0.0058793889373273,0.0158262875226806,-0.0031452320030728,-0.0029275279812639,0.0031503911276787,-0.0038470153879443,-0.0104311789674528,0.0008144228841232,0.0246026107640289,0.0154604327949409,-0.0088042534779053,-0.0171892436946254,-0.0388944035603081,0.009098476320314,0.020659010317704,0.0085151499599891,0.0156539017430451,0.0100527213240473,0.000798387805277,-0.0114890252731326,-0.0483018938494608,-0.0465706918263598,0.0496480949260863,0.0658659092805915,0.0306946073358378,-0.0151602848673265,-0.0685405573169172,-0.0520320269615939,0.024474548625462,0.0463739337694029,0.0240402309995127,-0.00463214468806,-0.0155911604451795,-1.9091726582178796e-05,-0.0007360590001886,-0.0130674073046226,-0.0052079047222555,-0.0067707670268092,0.0153638109389973,0.0061821907476585,-0.0041452101192162,0.0096997924878447,-0.0030673782629226,0.0038964073710983,0.0067551570775508,-0.0085074762705789,-0.0132499332773698,-0.0119096290827299,-0.0055683831665919,0.0021770876686572,0.022397197752259,0.0149598896693345,0.0036637043194425,0.0010450343215054,-0.0035333214339494,-0.0036956588114484,-0.0203006053650743,-0.0374196825571045,-0.0059478576529171,0.035865142974375,0.0323696390826404,0.0157743075226052,0.0023195806818452,-0.0123864072596723,-0.0176185642858457,-0.0264236374334049,-0.0069978273982777,0.003036731315116,0.0019587567030018,0.0068799165207651,0.0264469697485864,0.022737596370868,0.0057953022093469,-0.0075392202880296,-0.0285433175349688,-0.0360029076944386,-0.0143581960267156,0.0056477999361174,0.0288699948710563,0.0342315790062113,0.0207874045718067,-0.0028397663535986,-0.0260709119947389,-0.0270263133085879,-0.0088206646418747,0.0014483024823178,0.004664079919985,0.0063927153117106,0.0118435780390673,-0.0057441948563474,0.0207493546537463,0.0163074649991724,-0.0089008453098307,-0.0226888752710557,-0.0292203527213745,-0.0116125513077691,0.0215909783219925,0.019860502589215,0.0105686809384247,-0.0001348786152648,0.0043344374919939,-0.0017556411312153,-0.0139682965741688,-0.0223168821853078,0.00515979037379,0.0136133419371249,0.0006743639030449,0.0062605061948038,-0.0046164422431285,-0.0049093511152538,0.0058263088648235,0.0106558119414214,0.000532243949625,-0.0177118293705145,-0.0037479500017991,0.0023930451593716,0.0047122774973695,0.0028780437232706,0.0025082608979714,-0.0039401274210925,-0.0085483352983717,-0.0050450723105455,0.0240323110491958,0.0181082675058034,-0.0057858816313695,-0.0260296463340291,-0.020014172749373,-0.0195715360213081,0.0244787653905613,0.0395790362766966,0.012682926857938,-0.0098940382905302,-0.0255501393048105,-0.0096175590812977,0.013420935248577,-0.0172192382836694,-7.332422578055948e-06,0.0027788475697864,0.0099098540060076,0.02340493613912,-0.0014972556892374,-0.0087301544431724,-0.0098380119428643,-0.010260597631025,-0.0020718728552724,0.0028717291044398,0.0006775668343369,0.0064946039843728,0.0041826285827456,0.0049068408735376,0.0045640366761001,-0.0013724155488667,-0.0053412408449059,-0.0083342801336398,-0.0078466709066169,-0.0129732000509791,0.0095865104159979,0.0112729483121916,0.0205878042449648,0.0104819370190869,-0.0069494112216069,-0.025988211987654,-0.0096712400853728,0.0032022586274939,-0.0062535151214239,-0.003441254418463,0.0102142751123163,0.025333213046957,0.0233363210494287,0.0003838447486217,-0.0262691847661545,-0.0324580324504336,-0.0180753674806382,0.0038031478787594,0.0198509827838327,0.0170742813812545,0.0204753565844538,0.0108513315645779,-0.0122489887725199,-0.0035930694869267,-0.0135443195929707,-0.0279869647742089,-0.0203525751813321,0.0155834764663761,0.0214064669601765,0.011275813068321,0.0115063503421797,0.0235733792349326,0.004545877369757,-0.0192078146724491,-0.0362874826696104,-0.043039306338612,-0.0011180975710985,0.0277623488139735,0.0345757076165287,0.0281555757382511,0.0130804335184861,-0.0061104539396568,-0.0275108194508319,-0.0356797470252647,-0.0276222488732799,0.0070679570065042,0.0290276229705925,0.0274728760282849,0.0157933946537609,-0.000694305692313,-0.0135595760984956,,,,
-0.0046338949256332,-0.016272589715571,-0.023064657386872,-0.0226691673816203,0.0013234421460636,0.0171437226791682,0.0168871807431401,0.0153968517129361,0.0129920602901109,-0.0010306070884969,-0.0209724887506058,-0.0445602114723678,0.0003288751366904,0.0236109419898662,0.0191579905748597,0.0077238994787523,-0.0003746946747437,-0.0025677935215696,-0.0046069235101316,-0.0149010846976133,-0.0112573838039918,0.0092931515298992,0.0100397487318207,0.0008683456635753,-0.0018286024982289,0.0043731321050228,0.0006974080675415,0.0009535081856867,-0.0009694119822363,-0.0057149821072026,0.0050789942005052,-0.009066849438658,-0.0111785054389285,-0.0045455108628847,0.0205108656375401,0.016250446213939,0.0053493969627173,-0.0069514667054153,-0.0194256973316631,-0.0109778988363999,0.0090461972958915,0.0060265508257856,0.0036846628632133,-0.0127355905567055,-0.0033189088802784,0.0174518450858022,0.0136836085390504,-0.0004054799441792,-0.0030685322165246,-0.0179462797724678,-0.0127547963493781,-0.0084753731218588,-0.0077695015937926,0.0272503094200488,0.0342329527431213,0.0179688302976511,-0.0119202937887949,-0.0417459540625925,-0.0314691031019747,-0.0125351080732124,0.0255085139143016,0.0370012543310532,0.0219082550419562,0.0001595806093165,-0.0133403381006673,-0.018669564137259,-0.0141614568714658,-0.0212094946245068,-0.0027711258548685,0.0306966689102306,0.0254122229642907,0.0048156695989344,-0.0104960656163315,-0.0066750369668206,-0.0056730170506746,-0.0055908505325938,-0.0114849210676243,-0.0082774620837964,0.0106734673307417,0.0201103690827559,0.0096035221166795,0.0037128390167864,-0.0104468090107086,-0.0187446969392065,-7.123864325323055e-06,-0.0027237830606518,0.0058375278347249,0.0061172206181464,-9.030091299792508e-05,-0.0075247368044107,0.0174524114196472,0.0014096311392056,0.0003381651513784,-0.0074456621117533,-0.0192823697754707,0.004785446233821,-0.0015166963220454,-0.0013034412919856,0.0053678002345629,0.0128840554539347,0.0240719105620819,-0.0013769018368728,-0.0119285391301287,-0.0227376511453285,-0.0368118955582338,7.478159400928512e-05,0.0287865756206713,0.0244634099564151,0.0269139090883398,0.0099374269743232,-0.0196397454474901,-0.0478934897648672,-0.0324150405191706,0.0214070947208815,0.0306645077970594,0.0129102067491366,0.0120780152731907,0.0072286309480544,-0.0141705918582081,-0.0257126905684488,-0.0392643985579072,0.005456506872535,0.0428728710183521,0.0336462103621743,0.0099135754159033,-0.025679327263885,-0.0292159867533817,0.0054183497103269,4.1099782637750195e-05,-0.0351203603477904,-0.003138176722148,0.0058241175505486,0.0613557066542699,0.0690742633230095,0.0001144044614027,-0.0804206445722588,-0.0592327398566505,-0.0360038039792706,0.0471473104042959,-0.0597739126573807,0.0517544817561944,0.1403135190805897,0.0701249890875085,-0.0264887868276166,-0.1765207243272036,-0.1113420938895782,-0.0053180319900231,0.0921120249342352,0.0796528502413409,0.1031818651983791,0.0199969641759479,-0.0883689218484846,-0.1216155022004148,-0.0769241208749113,0.0755102996239119,0.1105111855283639,0.058259225880588,-0.0517094878485853,-0.0577025325178028,-0.0430137878377881,-0.0102529354843986,0.0685993462219328,0.042501108232672,-0.0278071933164393,-0.0692733580379235,0.0803696646196001,0.0543509906167693,-0.0607101459780381,-0.117998363550281,-0.0325801698765919,0.0999021153793274,0.0952888935376734,0.0242284049351288,-0.0134161533273333,-0.0763973863319028,-0.0774833318397869,0.003814632060993,0.0441667748364362,0.0402245531967574,-0.0107996003502547,-0.0040841396882488,0.0392904743825597,0.0118710295546688,-0.0349613856472018,-0.0381312454294984,-0.0351694984716416,0.055229054720196,0.0234497008071952,-0.0396349658373795,-0.0204023595655682,0.0124994975664015,0.0647677640580576,0.0333598035344192,-0.0023864538408957,-0.0505820655312889,-0.0548775258135124,-0.0941509118062326,0.0227353806526184,0.1128519172459885,0.091431406886587,0.0177697462335072,-0.0596893166184692,-0.0809604470757222,-0.0281778368318943,0.0104244807100102,0.0068148445760597,-0.0090288723520337,0.052429497767094,0.0568473354262071,0.0066753663926834,-0.0365136707928034,-0.0658461368833772,-0.0246425330754976,-0.0034641117261473,0.0512828835964018,0.0797084946477535,0.0245084111007082,-0.0719176995524607,-0.1472717893223922,0.0060095581121658,0.1197593247965687,0.089817891015081,0.0172516058792737,-0.0567536896920704,-0.0942912933368544,-0.031732032692058,0.0103681096474661,0.0616087026043714,0.0356453153075356,-0.0619986356838178,0.0069047809174822,0.0801583560017026,0.0635733627288119,-0.0551904103897228,-0.1505677540991853,-0.1039263854800939,0.1046009302599644,0.1377841358980427,0.0807652178888063,-0.0073466173886931,-0.0934897686311586,-0.1903569460344872,0.0298081361938846,0.0996442479968972,0.0915918217494761,0.0499628987578857,-0.0580471281039144,-0.0818798343584191,-0.0229088346127911,0.0281320123904819,-0.0826506302218899,0.0502445894989978,0.1453874067911467,-0.0084158180651537,-0.0732206972320181,0.0217622861595519,-0.0166365582717794,-0.0988190532644488,0.0059864472521074,0.0684633206325356,-0.0062637892156423,0.0203714148763701,0.0274930198427958,0.0499839552794936,-0.0319188398727227,-0.0754080425131223,0.0018273900838351,-0.0187411408924977,-0.0258699636527898,0.0017233477637173,0.075224089215082,0.0501499868490557,0.0018208435151737,-0.0472394517312027,0.0174047217261369,0.0280970056056836,-0.1048021986412324,-0.100915440936372,0.0481562781005648,0.1251021991230139,0.0480881468986591,-0.0137842544402273,-0.0344453050531456,0.0089092491321629,-0.0275529621473002,-0.0578987387814017,-0.0388407977317118,0.0159911469073447,0.0853384145519767,0.0634903606739197,-0.0134292557808967,-0.0858723163319439,-0.0042473006827366,0.040414504372412,-0.0240214478843,0.0235836657824535,0.0151011012782667,-0.0815688900644584,-0.0422636662411508,0.0563618046858251,0.1185038666090152,0.0244312597175724,-0.0335231861301856,-0.0893198971796385,-0.0896485100369732,0.0371227552464861,0.0606376285825887,0.0300829779893446,0.0069025404881499,0.002843085001991,-0.0189845444786242,0.02987745989112,-0.0445005115604986,-0.0050439354604498,-0.0426859873878837,-0.0050574722363947,0.051815753819775,0.0571781515256535,-0.0126886206461676,-0.0611550062381749,0.0033815409508278,0.0061353845057086,0.0698280025640749,-0.0069601076688072,-0.0989879151593354,-0.0267950792302636,0.0306836276103324,0.0474074070096374,0.0450477585327228,0.0067584617689796,-0.0401359542643623,-0.0041242390644963,-0.0287250566764279,-0.0435624356796219,0.038310356318525,0.0379278703791642,0.0087651779038368,-0.0129463347983094,-0.0131410053036788,-0.0079064928417482,0.0039121136238539,0.0062007033518902,0.0105244633942867,0.0187535611892686,-0.0106220083498761,-0.0439896146858253,-0.0155347277629154,0.0080251204304499,0.0301091834370349,0.027040529906292,0.0090807803246017,-0.0036284852621233,-0.0171318667571653,-0.0300476698074059,-0.013152711944653,0.0085152612047861,0.0173286793206625,0.0111365571758802,0.0032636248203194,-0.0061775961734851,0.0020004065525546,-0.0016324867333311,-0.0004325378179028,-5.599047952821129e-05,-0.0004007797263389,-0.0070508434499881,-0.0124461005739886,0.0081787515549672,0.0051844968995828,-0.0037246293834829,0.0140644927641877,0.0155577870958087,-0.0050385692095653,-0.0170702176055849,-0.0161445459466915,-0.0003216563710259,0.0054030542883538,0.0063971165876103,0.0079182546277569,0.006475136846631,-0.0063064647695063,0.0007308658827375,-0.0019221983315315,-0.0028720764920455,0.0024061111242068,-0.0026000209583736,-0.0095502652181572,-0.0036394630561189,0.00349457881409,0.0107761702323964,0.0107917414743257,-0.0003303383649736,-0.0094601614153344,0.0033633145369942,0.002019798689644,-0.0092323673715436,-0.0073205830663922,-0.0029242070944164,0.0018291567059689,0.0052596489472512,0.0035403908602297,0.0032835333883529,0.0153081079200208,0.0008840260624794,-0.0087112234885923,-0.007923078378077,-0.0114559134967356,-0.0092346879128217,0.0002480339059324,0.0078162720403617,0.0086574433148484,0.0237001689657973,0.0119918821749443,-0.0094395559104793,-0.0337079449540455,-0.0210537554013155,0.0056889040138121,0.0143712714190928,0.0172403308081968,0.0109710758392316,0.0079362101003046,-0.0048843389313039,-0.019578761272442,-0.0256845830050437,-0.0025322722732682,0.0094173104389229,0.0179955520194672,0.0157282967870089,0.0045444837342435,-0.0039329396613567,-0.0049252204754679,-0.0081349714588702,-0.0139985963595762,-0.0157652102208789,0.003272821855273,0.0164096406684173,0.014461789127963,0.0101696361019732,0.002063335045887,-0.006199280980455,-0.0114282055102767,-0.0113886329932139,-0.0029494135053281,0.0042261472954526,0.0023254578465792,-0.005745323827214,0.0073770533049942,0.0123138511953694,0.0079682831163893,-0.0005266670759168,-0.0099729764671944,-0.0087591199860569,-0.0036184686474419,-0.0043174129183636,-0.0101790235143517,0.0124640557300633,0.0159095439666731,0.0117646081924554,-0.0035339460368428,-0.0152011520623051,-0.0019436309872278,-0.0010905662097161,-0.0082875118597188,-0.0007940692604547,0.0108924727303285,0.0075736853196035,0.0005131139734398,-0.003858536536069,-0.0034983762663935,-0.002254227296634,0.0034479837253845,0.0038460083378538,-0.0086215734345458,-0.0048180606173176,0.0025918018762294,0.0063982423979238,0.0029307630428956,0.0048201438797363,0.0018019080373454,-0.0014719334831133,-0.0081344276180795,-0.0192547187408984,-0.0075189779947633,0.0194944179291656,0.0221216730054258,0.0057195939940338,-0.0084869903779768,-0.009372738146452,-0.0045277039044619,-0.0048508380714118,-0.0039477323262644,-0.0068908806954197,0.004243539874946,0.0147620820132088,0.0135957606812907,0.004079229705957,-0.0051156802159765,-0.0125289724033316,-0.0043477670503327,-0.0109598697403812,-0.0125532047836561,0.0124650121842742,0.0166730967429226,0.0085944887127489,0.0021669445409889,0.0049896197007558,-0.0035457347802379,-0.0171028891767699,-0.0228447360946852,0.0014571907412362,0.0113746537950554,0.0104718561486036,0.008782398853936,0.0113083868210835,0.0039356849520134,-0.0024676911789084,,,,
0.0145596681056562,0.0039974481649317,-0.000995984293232,-0.0064735409500246,-0.0023783805036603,-0.0023402349708128,-0.002149516640775,-0.0030286020603966,-0.0078939191785857,-0.0070078210781774,0.0118796039884045,0.0135803894935247,0.0039818278568224,-0.0015205572141704,-0.006107258106967,-0.0016688216740246,0.0031240425919566,-6.19646362017801e-05,-0.0044340011697202,-0.0155082492404997,-0.0063565780231825,0.011483627563092,0.0146161326496896,0.005686084736925,0.006225585559253,-0.0034723151495112,-0.0062516600293304,-0.0040776266189857,-0.0114693261567106,-0.0115966633188585,0.0051460664564396,0.012337658545117,0.0082525967446585,0.0008950336483818,0.0009740711356303,0.0013740990937134,-0.0006719540679918,-0.0021278663376706,-0.005441417662342,-0.0082113643371653,-0.0164213253142667,0.0123632509875022,0.0154670698403126,0.008480663502799,-0.0015715141175513,-0.004494246010084,-0.0035893833323324,-0.0032866673502603,-0.0015070056995971,0.0015891433814212,-0.0078927582274385,0.0018184124189721,0.0081947030660901,0.0021741814965464,-0.0063537980329297,0.0041031558926139,0.0073919127054393,0.0030605964373851,-0.0064346284508426,-0.0142772481347227,-0.0104645446289042,0.0116353065096815,0.0110612231591141,0.0036105051434433,-4.0146701318958336e-05,0.0017596457600933,0.0005894783403092,-0.0099624194048138,-0.0181184826570041,0.0038759055718592,0.0155901222446541,0.0127903570535363,-0.000899279577737,-0.0088877440507453,-0.0069360580301993,-0.0063078756923559,-0.0007396571085509,0.0070435027209407,0.0071088292795426,0.0091039028880063,0.003729546838499,-0.0065837106398664,-0.0201157443244387,-0.0201511580897651,0.0142400302599136,0.0182271091152592,0.011196647134071,0.0044283574874311,-0.0043813906797098,-0.0129503837491754,-0.011493441030809,0.0094911986380959,0.0036948550202181,-0.0022145084043143,-0.0194654796901486,-8.690098571792193e-05,0.0200615122051401,0.0145889080790638,0.0120543118465547,-0.0034024998494493,-0.0250819577710431,-0.008255251887292,-0.0155908184747046,-0.0028121653977353,0.023920980099619,0.0216014245802706,0.0072651710837807,-0.0103178343956445,-0.0249717410084763,-0.0175151894114461,0.0188019420009426,0.0263574694228378,0.0180073538059669,-0.0181087468380595,-0.0353628703106937,-0.0107327009964513,0.0011033082222871,0.0160211792582058,0.0166678964423032,0.0106835119282463,0.0109219030316009,0.0242427088923064,-0.0197305485132495,-0.0448984485465919,-0.0580932357232948,-0.0192453446659069,0.0769313779184685,0.0672304205507113,0.0263567977718183,-0.0249072781483512,-0.0633892214080239,-0.0117270908183775,0.0035830192153419,-0.0387706920469296,0.0039114179762765,0.0482301641167562,0.0371764847663315,0.0342907453216147,-0.0139385803256661,-0.0477098247193049,-0.0325082450485926,-0.0149301965833115,-0.0108806933193828,0.0415997225569617,0.0268242179343879,-0.0010724807096684,0.0020079628284605,-0.0139828635919108,0.0070312662872305,0.0167810828758007,0.0199464959671111,-0.027994272652898,-0.0824121211967188,-0.0401779371651853,0.0302456783644156,0.0785362058271481,0.0648323728162469,0.0404347473017787,-0.0038938701667868,-0.054831218126594,-0.1007610956548398,-0.1186114514497563,0.0418358558260429,0.0686607925456943,0.0944689425659942,0.0561178001958113,0.0509602303683952,-0.0179860807372162,-0.123582507740193,-0.076462189454875,-0.0446680967019021,0.002464246790048,0.0411500204496765,0.0704153374993072,0.0737548432228374,0.0644587988886875,0.0061222752692001,-0.0799694121178307,-0.053419112460632,-0.1150091867468392,-0.1349338200602238,0.0788131175569274,0.1959143640081815,0.1563195162698574,0.0343381403423029,-0.0955187298697355,-0.1825125063023278,-0.1351472187789262,0.0165656852880212,0.166632949314997,0.1028847682315806,-0.0116966766320261,-0.071456668302338,-0.0111133322851228,0.0322812579418838,-0.0352716710394707,-0.0661136602585239,0.0447938944502457,0.0489836911760775,-0.0189040961769479,-0.0357978561293287,0.0297488544834269,0.0211997821204032,-0.0061033582687415,-0.015658114692255,0.0399747419510187,0.0433890561119159,-0.1024485122410999,-0.1112231096056771,-0.008223474455294,0.0632746231202228,0.1756025973574942,0.1251124387240193,-0.0314970767824976,-0.1802266217358795,-0.1908519667092099,-0.084180704658431,0.1050570366425142,0.1722921074951067,0.1794360791914958,0.0504508475571278,-0.0620281078644863,-0.2333357349708928,-0.2055833723519211,0.0058494748690627,0.1793729119726058,0.1973367590173545,0.0761822242460472,-0.0993734288292294,-0.0954228056316095,-0.0326224052265429,-0.0484369158688743,-0.1219564773879004,0.1517179670428927,0.1530510645171035,0.0053193360740369,-0.1061074480354786,0.0349632787325351,-0.0635808480017162,-0.1017956970223669,0.0489453268613758,0.1249086647103038,0.04974996540122,-0.0549602495759357,-0.1079647975989794,0.0070149954609057,0.0388715095434569,0.0204126881520871,-0.0296816806774817,0.0936075339142388,0.0107139970288786,-0.0928323124820503,-0.1046349174217841,0.0429814319134884,0.1299538311124518,0.0432345039316752,-0.0601592016264121,-0.0922352883678201,-0.045978742649284,0.0915844554135878,0.0882426392404858,-0.0233041408935441,-0.1131606939148505,0.0435673874023956,0.0229611184277874,-0.0462881606181723,0.0111613904117957,0.0651224793179549,0.0267355219351366,-0.0228580269474299,-0.1280365744282489,-0.0333599966788422,0.0846124631640694,0.1152434548431544,0.0459901783399247,-0.0548084690309852,-0.1465511323314624,-0.0721687897482945,0.073920485831708,0.1208483404399385,0.0454897118649705,-0.0159544137933426,-0.1213751355022854,-0.0314676882736483,0.0531002322634787,0.0211204270937511,0.0142022887607462,-0.0003568458403878,0.0284517227170358,0.0195499069914114,-0.0808624381136933,-0.1031391800786653,0.0105493258138804,0.1109438563874229,0.1119964246759531,-0.003743252455804,-0.0438451197535458,-0.0623797116564482,-0.0769317930963015,-0.0488522358379574,0.0507152380298067,0.0606516294765884,0.0717338444666141,0.0242367747151157,-0.0249964566446936,0.0001928989675828,-0.0347114669861767,-0.1307431407415129,-0.0536364636862532,0.1316391520393147,0.137510476204428,-0.00289251881847,-0.1517777236799052,-0.0175094522507322,0.055075421137263,0.0719345789190142,-0.0054891100637884,-0.0670050685039093,-0.0701464837633025,0.0226378129944377,0.0723127096589166,0.025590370083777,-0.0365479260089724,-0.0130142645200748,0.0191955873290217,0.0061965694070316,-0.0228300593442274,-0.0189014603582865,0.0107891621900358,0.0128846314814584,0.0303721927353934,-0.000816769157129,-0.0639046382687871,0.0005461438877279,0.030491097429679,-0.0027029191362672,0.0180850006974192,0.0177332198134713,0.0043692487885253,-0.013542323120272,-0.0391944571517655,-0.0467937827519552,0.0254671790545103,0.0354071515077306,0.0440454289269585,0.0217272940542662,-0.0314470818282724,-0.0700217325031607,0.0044265059447536,0.0257335965680016,0.0179092253137811,-0.0041137686007542,0.0018284345377656,0.004210917447607,-0.0001626331471383,-0.0155753257660814,-0.0054409471674549,0.0026949273881357,-0.0011722217162229,0.0115611669237069,0.0168523313783929,0.003579963790068,-0.0137633024226555,-0.0175098559939091,-0.0202797724149628,0.01451680751262,0.0122601765840511,0.0046778443701047,0.0101902982497132,0.0026773596246101,-0.0031866927736417,0.0019338512333504,-0.0134388111591219,-0.0094125041293324,-0.010453067866027,-0.0252302899231996,0.0321047246962237,0.0352949708186823,0.0078415799595145,0.0046901128275533,-0.0140546758892031,-0.024926146475369,-0.0225866754582325,-0.0112677862138307,0.0053027164439834,0.0205643425613267,0.0312115316335528,0.0178751602481187,0.0048588562849088,-0.0191509963714608,-0.0363056693892058,-0.0257994056115875,1.9803233654747257e-05,0.0216815907601183,0.0243398925716603,0.017896859202396,0.0031247868047142,-0.0109644691282705,-0.0190681881285767,-0.010300771670431,-0.0038749076164343,0.0061665387068347,0.011069735842778,0.0071926461888955,-0.0086102242100184,-0.0056175595447334,0.0104408542603445,0.0038958084474061,-0.0022009596628066,-0.0065033772374951,-0.0049868695026085,0.0033161984610823,0.0041506842435601,-3.4387416683040686e-05,-0.0108259905988617,0.0018206568996595,0.0055686873371668,0.0053218092017755,0.0056598899411837,-7.395392407419516e-05,-0.0035432718177121,-0.0059037593469238,-0.0132158541341223,0.0032093160971043,0.0026569601479049,0.0058500096864346,0.0104095850801957,0.0032893693339971,-0.0040272876338547,-0.0075619290681756,-0.0076438377796149,-0.0022504056907791,0.0033704523083586,0.0054367989144637,0.0032798545816343,0.0020849336619737,0.0007535996274689,-0.0015559007092184,-0.0032774981956762,-0.0034582364342866,-0.0020604687476103,4.893453625583511e-05,0.0014313118787804,0.0006615540995113,-0.002939428165009,0.0083807704724515,0.0096608651813534,0.0027343395397458,-0.0037249346417793,-0.0098701040178127,-0.0171308062928081,-0.0149678113558174,0.0101222593890407,0.0185910839812099,0.0183887846682197,0.0100325075614995,-0.002721861618128,-0.0131876076619818,-0.017168535360853,-0.0142159454248076,-0.0032717817061309,0.0073545165009781,0.013376968346545,0.0139142735587517,0.008026065630511,-0.0116256060417365,0.0019679819770872,-0.0014073927882955,-0.0075781677720973,-0.0115145489868889,-0.0040205919546761,0.0029160649526391,0.007420021359322,0.0118083383979776,0.0061824697349557,-0.0009090599280826,-0.0049662299867212,-0.0092209392104408,-0.012859115799291,0.0014052696499762,0.014130927210574,0.0105501993136345,0.0029394135797017,-0.0041647788803886,-0.0136569970800474,-0.018624635501853,0.0026616577040124,0.0161041248049798,0.0144281978384804,0.0097115580332768,-0.0005358615314646,-0.0091576573759903,-0.0184019966225055,-0.0179408830303361,0.0055770658251186,0.0143462331056189,0.0091829124274375,0.0087387741982588,0.0040210162031251,-0.0023836503894228,-0.011961848759472,-0.0174175734273034,0.002567810052684,0.0072678023811835,0.0066035391393668,0.0031939430976348,0.0024592978310623,0.0006459810296778,-0.0031644687706942,-0.0084978145257014,-0.006783289100105,0.005726619295847,0.0043936272670669,0.0046915988293551,0.0015257067341554,0.001320516507925,,,,
0.0026467510331368,0.0015472364203981,0.0007955823359108,-0.0029746545585258,-0.0006364995370099,0.0047157268558585,0.0034647354059462,-0.0053487627545884,-0.01344632291783,0.0037094358835742,0.0058540881974316,0.0053742002780693,0.0033047714305574,-0.0017979154943345,-0.0021532701981251,-0.0004881849745848,-0.0013959323755075,-0.0059955045606823,-0.0096155357059566,0.0085502856980153,0.0096318060198305,0.005405941025946,0.0013111898696987,-0.0034502114066994,-0.0035365279677136,-0.0081606750871286,-0.0113088948006212,0.0067711985021054,0.0107712012222758,0.0050710507352881,0.0010379842866314,0.0042033989270998,-0.0024291029686531,-0.0125201470945058,-0.0175610239426072,0.0040382876128322,0.0140814479081824,0.0137502591329821,0.0060612958334252,-0.0002200795665993,-0.009459018889899,-0.0165644955658935,-0.0126570292542721,0.0079766632105125,0.0111453163726359,0.0067244959870301,0.0033083003328727,0.0033557948457712,0.0006654367562285,-0.0024425800205993,-0.0083599070029844,-0.0087087357562922,-0.0127246889856451,0.0065537786261671,0.0133824279236864,0.0095609164998632,0.0043438039757815,-0.0001901966168657,-0.0020362159321486,-0.0080035950783768,-0.0156450000079341,-0.0085842023178397,0.0115094354519901,0.0128823107286961,0.008373522535013,0.0017018643638373,-0.0037736213860587,-0.0090340412027464,-0.0061417222316409,-0.0040530211692034,0.0023687789682712,0.0046572567758321,0.005098613392716,0.0059326094623312,0.0035798107326133,-0.0038441878405662,-0.0140333571729067,-0.0040906620493751,0.0044763894187408,0.0034472965329695,0.0038788329333923,0.0074600281839188,0.0008091896954851,-0.0090606839439102,-0.0126400271814595,0.0001451274233169,0.0117609232324891,0.0116554477935855,0.0012533847728294,-0.0038384500205954,-0.0073171310765927,-0.0153750179368195,-0.0164345297865919,0.0220527154675999,0.023053640895697,0.008273912828319,-0.0017504146334295,-0.0312372643742962,-0.0165137366214527,0.0317290737249576,0.0014637951599811,-0.0134894722743521,0.0043661901611331,0.0113777287289981,-0.0025086887046954,-0.0091086043300395,-0.0141269439025511,0.0020206498267032,0.0116934667726384,0.0255903164630443,0.0134073467077019,-0.0106859504569132,-0.0428282479880888,-0.0377781637938468,0.0115290237916303,0.0416686825468001,0.037591208887777,0.017871733265749,-0.0156036851581924,-0.0390073741456534,-0.0388095424714605,-0.0181017999418592,0.0196945972680875,0.0456681218132866,0.0330893506570767,0.0261850767640065,-0.024647386277741,-0.0578123888738479,-0.0144797024741488,-0.0033660135004157,-0.0629005929586499,0.0589650734924694,0.0969128184489424,0.0483873123387375,-0.0087080327126919,-0.1021658466070828,-0.1015224472346243,0.0396929295880586,0.053116180246155,-0.0126838727647526,0.0284126001772072,0.0496941812077261,-0.0077351810736072,-0.0054381067823478,-0.0327598636922745,-0.025507371851801,-0.0116639872672768,-0.0499919001503308,0.0226091332812559,0.0945716388874401,0.0502073841874224,-0.0369195382726238,-0.0464061904058888,-0.0646693405360903,0.0228490463348877,0.0628566716339051,-0.0290467254677026,-0.0136743841830369,0.0437186072859863,0.0045435325747916,-0.0162914635084088,-0.0731902222342047,-0.0449053995552375,0.1207064129794054,0.1213543148875284,-0.0310319816556855,-0.1408457498751376,-0.0491861739966817,-0.0324141214236294,0.0517043643727219,0.1087056632757284,0.0296308607424417,-0.0349579850199277,0.0563104434693088,-0.0247412648959711,-0.1229488847955575,-0.1457904616206894,0.0611574611036106,0.1533468259072602,0.0891701056180144,0.0112828070118821,-0.0384254300708901,-0.0382352455069173,-0.0850095582469037,-0.0305912867044934,-0.0331468168584213,-0.0381382871643787,0.1727404207001941,0.1106783809555025,-0.0288768738460104,-0.0670330164225095,-0.0281666763814317,-0.0189110069599606,-0.0172983270479446,-0.135026164801835,0.0312029255046811,0.1521727666159786,0.0670929503527942,-0.0293746678243436,0.0292162633599142,-0.0319341073664119,-0.009579669957046,-0.1508256954458459,-0.0850364731774214,0.0838059298458202,0.0723896789467126,0.1178677207166988,0.1089351908146438,-0.0411554496235455,-0.2098118076301349,-0.1255812978402452,0.0954708998102119,0.0898823150130731,0.0061454398900102,0.0345867429727159,-0.0050699396394892,-0.0698876124035973,-0.007405924696001,0.0391899403559262,0.0874610108161835,-0.0552494867420797,-0.1153577477799329,0.0098046131770684,0.0560095871561222,0.0343478125682232,-0.0030997352552086,-0.0292822014615388,0.0356154117170864,0.0050281607846805,0.0102190539321903,-0.0270055730048439,-0.0907102892835862,-0.0188091114995495,0.0924764186453259,0.0842472523721895,0.0001749628738854,-0.0902610408472788,-0.031023269851776,0.0081231297273332,0.004299000866294,0.051005595257914,0.0080549081095475,-0.0395639869338745,-0.0160005365741187,0.0854874668960545,0.0209768161391321,-0.1182169149373348,-0.1525337338559153,0.1126473024062891,0.1518958276245761,0.0791444354095019,-0.0564175489749318,-0.0945899857805813,-0.1394326344647931,0.0557795325710959,0.0659287119807372,0.079532230315423,-0.0219014973051537,-0.1040292536145712,0.027572667624513,0.0608632778538667,0.0594181252299428,-0.0212371208867152,-0.0892102548154336,-0.0845042896526513,0.0590693886224571,0.0341417656839621,0.0013659390731174,0.0675080478444893,0.0305266270385636,-0.0461609958830189,-0.0744132774676453,-0.0057395937132764,0.0329021427470821,-0.0296706218977731,0.0127986491160278,0.0452002390447104,-0.0062833794537964,-0.0206736082415307,0.051598782400307,0.0528667262410038,-0.069857614959207,-0.1369186402849158,-0.0031381396258832,0.0451992882633482,0.0946466832821476,0.0620996690712667,0.0088629380292845,-0.0278147264350705,-0.0799252578551049,-0.0580661753265079,-0.0168717888819309,0.0285473988903762,0.0170408502281676,0.0439146511078052,0.0500853022408842,0.0300617792839498,0.0009116591743639,-0.0342824096080086,-0.0666047580193923,-0.1255092853076815,-0.0258526550315036,0.1326180041285794,0.1054127236621102,0.048690062035306,-0.0329811792603645,-0.0752226077599352,-0.0436694257417924,-0.0105601129530414,-0.0124739464142839,0.0597436576780252,0.011308085116005,-0.0704297707370999,0.0209778872683369,0.0521411073833158,0.0349241079189333,0.0025069028980975,0.0047624991673588,-0.0418276809791479,-0.0877560194101428,-0.0481812358858374,0.0395704808786418,0.0950932700868584,0.0581021185911211,-0.0023489424805445,-0.0544118852681158,-0.0392147692369943,0.0245953465084786,0.0214760251260217,-0.059482907092431,-0.0535962837438246,0.0013678297165406,0.0906038309823733,0.0906512932615094,0.0313541694436942,-0.0534102680857189,-0.1251589415731068,-0.1161989575394981,0.0741505651660899,0.1046808849987348,0.0708571953964029,0.010197282083264,-0.0374819839702287,-0.072840231717352,-0.0502684647193259,0.0101680550346788,0.0339063816079111,0.0315881988555839,0.0199731539876453,0.0089429255972249,-0.0087043207273311,-0.0367251795907491,-0.0145778222722092,0.0139593924384191,0.0082798210569079,0.0016973486676051,-0.0023195822211709,0.00028017957218,-0.006654036020319,-0.0020108762239129,0.0146141462486981,0.0097771721729176,-0.0013514848296975,2.4192084972277755e-06,-0.0075885917144808,-0.0209785267084262,-0.0014628826326565,0.0034774396809564,0.0084462616036072,0.0053127090370304,-0.0010447548806673,0.0118398327186723,0.0100501574813605,-0.0108938620549354,-0.0140241214840375,0.0016452550884568,-0.0022702047041161,-0.0065891478897687,-0.0026327514907752,0.0021460080581208,0.009591995111995,0.0112945801724546,0.0068960293850847,-0.0054343140021229,-0.0075841803488266,-0.0001744482720497,-0.0051467642862286,-0.0040686464755763,-0.0048289603742404,-4.569854105365829e-05,0.0044697567350262,0.0049399620112306,0.0045735545595328,0.0036546810633469,0.0049212553699051,0.00139552817182,-0.0036681098615383,-0.0125775074126486,-0.0012279105081327,-0.0031970822925716,-0.0062349711244722,-0.0117578670748329,0.0040317209814136,0.0283873330518025,0.0262393541625027,0.0108661632043508,-0.0114741637658529,-0.0405284677876554,-0.0274763122192399,-0.0021310472919896,0.0098316666768414,0.0181949910281946,0.0211307135610653,0.0165765497457135,0.0083764179714801,-0.0113778177879654,-0.0264346464480353,-0.0187722021861369,-0.0073587132554697,0.0040761648100209,0.0123456196743875,0.0164233585386619,0.0116227732556113,0.0047732199845211,-0.0134312173906046,-0.0080112062010733,-0.0015880511438767,0.0003534789733034,-0.0049900116205956,-0.0084306187724617,0.0008235996872481,0.0078511596403638,0.0126344491762735,0.0100166232403717,-0.0004230731780757,-0.0130268872530734,-0.0102899913229625,0.0008881632765118,0.0007483886557183,0.0004839676856056,-0.0012213916575848,-0.0008756938412784,0.009870688759813,0.0081226657579388,-0.0006524486730339,-0.006306086909686,-0.0076971684380012,-0.006111714584748,0.0028541285947174,0.0079977212165677,0.0062130788453275,-0.0037155385792134,-0.0056797306157343,-0.0032159180493041,-0.008380418075031,0.0076030006547687,0.0125592335619309,0.0097455549388512,0.0017497595509134,-0.0096421203053858,-0.0199518434758959,-0.0083936417191939,0.0058964106177643,0.0090015492867605,0.0035326181081246,0.0048095267007301,0.0055983168932406,0.0036029594261674,0.0034375783713197,-0.0040039982582599,-0.0130887191956785,-0.0152891751771257,-0.0084869305405159,0.001788271239659,0.0122499109717825,0.0184514396532004,0.0169995188891124,0.0073390042245804,-0.0077970193925365,-0.0234077019552209,-0.0219369626933547,-0.0070853795890172,0.0042219330099806,0.0108283547821238,0.0144929386649628,0.0151539087714703,0.0112185492371026,-0.0026052435295467,-0.0143495613474104,-0.0191482709485107,-0.0142939834508551,-0.0034167800122706,0.0089181846248473,0.0167737151437469,0.0156890992699177,0.0049335348768528,-0.0093436883161953,-0.0034443172153402,-0.0073757533354938,-0.0078167336349567,-0.0065747084255749,0.0008744431221735,0.008184299709176,0.0087478679736889,0.0068954175749759,0.0030427651970853,-0.0059163583107259,-0.0088165308859772,-0.0068480804055502,-0.0014188375390589,0.0042278481464865,0.0066695210088077,0.0039537452161041,-0.0034690329659522,-0.0007047099879681,0.0012767347958102,-0.0022479102214136,,,
-0.0033325429528691,0.004894117087147,0.0133941951780174,0.0118072135663319,0.0070776345115784,-0.0012063067812697,-0.0092075462345348,-0.0131265844804905,-0.0110323658114571,-0.0038411278257263,0.0050709901815653,0.0114841478445373,0.0123947796673271,0.0074703854964384,0.0016451610587843,-0.0061876075511688,-0.0126278907388124,-0.0112607283872263,-0.0055365467619349,0.0018910944659585,0.0079244886467389,0.0103158516709193,0.0084730608075662,0.0035066008927043,-0.0024006624120973,-0.0069523312249749,-0.0085985572094129,-0.0069872981991025,-0.0029255434813379,0.0020241868944806,0.0061031811802322,0.0078991217432138,0.0067678642901854,0.0030577526701096,-0.001942026348773,-0.0063737633329851,-0.0084476170448564,-0.0071543478811448,-0.0027779871150353,0.0030551698450129,0.0079147098879317,0.0095657560204778,0.0070339612622839,0.0012051014354668,-0.0054282297567036,-0.0098506498276333,-0.0099517536949229,-0.0055767131007476,0.0013606442913575,0.0077770631822425,0.0108640002743196,0.0093290824314739,0.0038396952559319,-0.0034466523005912,-0.0098914948563056,-0.0133510453624656,-0.007851336883488,0.0014840574715627,0.0081844166712662,0.0072408460224333,0.0080651538934422,0.006887134789648,0.0017506096988197,-0.0050215874923647,-0.0104596770951306,-0.0124285416655032,-0.010750164944691,-0.0024996517906316,0.0186687536669145,0.0265745816328566,0.0148026877050199,-0.0169711185444177,-0.0365837106740646,-0.0146176625880302,0.0190604990220317,0.0314163587840946,0.0133024999301772,-0.0147473283190253,-0.0356156215279502,-0.0207629934056752,0.0273212274428239,0.0321046681264947,0.0056504576335193,-0.0151882581383409,-0.0077248533747721,-0.0113424213026156,-0.003322435251249,0.0061874817831484,0.0129900399947562,0.0046589120692493,-0.0065536962381587,-0.0114643421880089,-0.0078791285451663,-0.0047745682745953,0.0251722209842234,0.0260822299533424,-0.0037413072879664,-0.0274155274458728,-0.0182790011413973,-0.0023235713611972,-0.0044802423379126,0.0135309668448468,0.0253585301711729,0.0145498695274332,-0.0108495908489144,-0.0192642459681752,-0.0044041069110342,-0.004223789600923,-0.0103640858914752,0.0211541501156559,0.0152403878419766,-0.0040867890807795,-0.014022986792506,-0.023768217733892,0.0013733227954474,0.027908345572027,0.0270304287735603,0.0076493622835034,-0.0117488797316366,-0.0331985064983781,-0.0384848531105738,-0.0080439414053376,0.0181479801171331,0.0559083650927254,0.0352807534680489,-0.0158833275592904,-0.0265936029921106,-0.0171830722340595,-0.0212192439254148,-0.0100581170506341,0.0169399522966126,0.0236359842516365,0.0055364075423418,-0.0212724130212838,0.0110353122870413,0.0177175368707978,0.0126107120797846,0.0011856008884086,-0.0274314825038577,-0.0477757561080721,-0.0330392915565491,0.0342653299509677,0.0625206114837781,0.0403570671581636,0.0083745912151787,-0.0382417703031185,-0.0474231193650286,-0.0482724332832848,0.0135570775884605,0.0417331811960374,0.0040964484063612,0.0085869168290116,0.0267315918983065,0.022800157379265,0.0056845539528795,-0.0594306744608622,-0.0569931445535174,-0.008083566496576,0.0257764830747345,0.0173672419430298,0.0494115622446524,0.0288548450833901,0.0038599295351561,-0.0038991189841075,-0.039828859556745,-0.0773109577030351,-0.0590063730633112,0.0383808511752961,0.0899528591453325,0.0805468442576681,0.0211232242318431,-0.0357352007445072,-0.0768168341423494,-0.1064344979673637,-0.0138254478490544,0.0993695357494364,0.0811851849413258,0.0320535806452627,-0.0425445358486956,-0.0753376547068918,-0.0040037952856642,-0.005897485487268,0.0326801489759313,0.0358037454780269,-0.0104488217328971,-0.0236532986528047,-0.0230016409367825,0.0142195237826681,0.0243567981885989,0.0210779193126897,-0.022306202196154,-0.037513788016698,0.0169670394905102,-0.0087704168715156,0.0261436708241367,0.0001798305798157,0.0204800536586728,0.0181946275997218,-0.0687228006135156,-0.0402593342896659,0.0132396620580324,0.0565897137070719,0.0332988216205156,0.0272341197103417,-0.0288885063926436,-0.0645660597518044,-0.02948892950857,0.0274741598847396,0.0097841485159067,0.0353440938765319,-0.0104809419274447,-0.0080299034017624,0.0032810057958494,0.0226203452665701,0.0698487690894457,-0.0498795556608779,-0.1258338492722034,-0.0624975821453144,-0.0101702319639498,0.1913858966075899,0.2050503008141684,-0.0358420515890408,-0.2306022139689495,-0.1776927598759337,0.0500761844197415,0.1125144965787142,0.0934331865591621,0.054761248464164,-0.0307158763060862,-0.0396474921612926,-0.0868034349029367,0.0002994385968026,-0.0032136861609883,0.0270502459942893,0.0077515898679674,0.0105442295535166,0.0581907032656105,0.0577394140141309,-0.0952517433642445,-0.0351405808620161,-0.0312543858974271,-0.0285493502018876,0.0151191737705698,0.0807870312352166,0.0855003251286786,-0.0687702695336438,-0.0458009093937999,0.0334991303991768,0.0179596962672669,-0.0455859748694638,-0.0872564029953437,0.0391196232131018,0.0422888645590975,0.0573220282472003,-6.198638815244703e-05,-0.0185839095057126,-0.0447481572651353,0.0396221356255551,-0.0005446513470416,-0.0026672397259103,-0.0228188004351743,-0.0621802541963939,0.0199103727849717,-0.0208101832000113,0.088528049054802,0.0529780059878415,-0.0264738754176394,0.0379249606512478,-0.0031989920695464,-0.0915516634847888,-0.1643307083653523,-0.0025391947569508,0.1737878333122854,0.0926112463532927,0.0201816568093648,-0.0745165512113996,-0.0006039453381069,0.0059014155318316,-0.0626969939187159,-0.0570907647370558,-0.0269670340125835,0.0668270882894895,0.091105396990359,-0.0108947966093865,0.0258872371183362,-0.0292120294296418,-0.0379684295844596,0.0023185453566716,-0.0874261007805945,0.0151528172737431,0.0923442026350304,0.0775765905359876,-0.029364487400418,-0.1468350090926437,-0.01977822342682,0.0769465444618096,0.053238402524556,0.044239237861857,-0.0142106097321494,-0.0556767377859354,-0.0422349513933515,-0.0122500372854937,-0.0268138778379555,0.0511377648625547,0.0398040060651285,0.0249946013562387,0.0029743231858305,-0.0105286450770628,-0.0149285070186557,-0.0341613032273341,-0.0350865183452067,0.0202632007790092,0.0177749640912043,-0.0117706524493803,0.0249587577068032,0.0269586412605432,0.0113879831651562,-0.0060733694122114,-0.027585985188291,-0.0395176812304092,0.0047668662291077,0.0170557717168495,0.0125739792033945,0.0078393567928934,-0.0071844782086953,-0.0251387917516543,0.0047146414244551,0.0355912663198706,0.032551909551686,0.0065826772969517,-0.0351335432219721,-0.0904946713044608,-0.0300925001719803,0.0704609644304472,0.0656531294966159,0.0243451033905071,-0.0176077402385715,-0.0320379293902204,-0.0336807278495252,-0.0047560830995348,0.0123754772456765,0.0171151159758886,0.0032021567088163,-0.0289544032002079,0.0147492279935039,0.030458850855315,0.00366871745045,-0.0091986579659934,-0.0175812745609031,-0.0171332537132132,-0.0051226765362369,0.0088971092841032,0.0165039025623356,0.0165789956327319,0.0157571343752335,-0.0177172755123973,-0.0533456430227755,-0.0065083325632763,0.040221484640994,0.0266740880344854,0.0012668357233313,-0.0108369435841307,-0.0106725004801174,-0.0114415929251447,-0.0104326718228859,0.0060258006063674,0.0012735524681377,0.0148444826797222,0.0108839598981068,0.0002381123062247,-0.0166489645246881,-0.0043378602567979,0.0042810091544392,0.003335815460742,0.0043950597080485,-0.0002764071556651,-0.0063851159345478,-0.0113583054611957,0.0024853967912449,0.0046643105570627,0.0035903974564792,0.0041837971040765,0.0058876423466306,0.0048932036563131,-0.0006985476305511,-0.0054995491439991,-0.0078794420219724,-0.0124825578378397,-0.0175704991834303,0.009047435991551,0.0212439877266399,0.017717493943491,0.0074267726472289,-0.0042849665789366,-0.0138659085357897,-0.0111338133719448,-0.0043723082984309,-0.0068868506021998,-0.0045103559048457,0.0087205549493092,0.0130863133687014,0.013396785493325,0.0052092312205401,-0.0024021123305137,-0.0153166604188237,-0.0129998768814916,-0.0008147706335099,0.000408353717943,0.0015639866280478,0.0060073338064407,0.0081541287139945,0.0071421394019095,0.0006290902983518,-0.0052034152090293,-0.0077136101745312,-0.0081460278918853,-0.0069049125580614,0.0098300660906686,0.0096658459223339,0.0027466386471495,-0.0016244765594606,-0.004028684173096,-0.0052842894583604,0.001289926160845,0.0026965057491223,0.002586892183297,0.0042836295090588,0.0014827145613095,-0.0112875619350917,-0.0110125495022527,0.0028558777130828,0.0097722133937541,0.007832035873801,0.002519648418706,-0.0011246312128702,-0.0017996361968444,-0.0080638540833108,-0.0068337971924702,0.0028291840606752,0.0074887326275151,0.0010638230637087,-0.00200848501252,-0.0022596180882281,-0.0021635038602726,0.0021570229216476,0.0030179730874943,0.0016764864774787,0.0061619501099733,0.0009050787282122,-0.0051174218250011,-0.0114298674351832,-0.0127755853202069,0.0056960024002654,0.010526470449788,0.0120944822555969,0.0054559387734993,-0.0030398106448198,-0.0045920500320121,-0.0074966463824902,-0.0122766796275248,-0.0037968731720719,0.0118451055927802,0.0115453230511573,0.0060549807114256,-0.0024781046906972,-0.0053196705034111,-0.014021281762262,-0.0076469629295616,0.0089280959271824,0.0095882765246256,0.0057497477365956,0.0036210840813907,-0.0003435836620623,-0.0054664951718002,-0.006562189670617,-0.0067941333808641,-0.0031505010273429,-0.0029347048349104,0.0060198318837076,0.010046168197783,0.0091125745744699,0.0045290817081748,-0.001532264632724,-0.006727581341019,-0.0092387541876745,-0.0082719673729762,-0.0042470407083297,0.0013397981928845,0.0063415382501885,0.0085810186517678,0.0065157739617119,-0.0001922613778586,-0.0029110093541018,0.0033549445826072,0.0023693534202024,-0.0057899836351782,-0.0105200406620281,-0.0103982169631373,-0.0024056628104592,0.0032115105359928,0.0110549498518924,0.0141491089744237,0.0094897497021424,0.000645069605703,-0.0068898972180956,-0.0121453941607076,-0.0126053693553291,-0.007903487331696,5.804997536031e-07,0.0077452842423324,0.0120936807904296,0.0113249760129481,0.0058960638002396,-0.0018335325396416,-0.0061355031884431,-0.0117746170178623,,,,
0.0100193931851729,0.0065719982661777,-0.0010458111661758,-0.007316428649763,-0.0109108771380167,-0.011090436838363,-0.0049086414721594,0.0051581559964215,0.0145236274843257,0.0136570396779819,0.0100439590232334,0.0002087325990196,-0.0111523606736595,-0.0158140944912658,-0.0174004048519862,-0.0083988166405515,0.0047350889994033,0.0159032091321451,0.0197428597640963,0.0167317397225399,0.0066153115555716,-0.0097195579198134,-0.0213959331275383,-0.021835540701598,-0.0134360971869652,0.0001077114661593,0.0130479705489446,0.020152804752148,0.0188930015469469,0.0103004832645167,-0.0017523783992711,-0.0123740774943424,-0.0176782115449781,-0.016153105704779,-0.0089289101169554,0.0009715041906999,0.0099210200616202,0.0149502628923238,0.0145906235607118,0.0091583231356358,0.0005190392145399,-0.0085308028244245,-0.0125852945706142,-0.0096063574529074,-0.0087881870230284,-0.0063367975108563,0.0025173463986375,0.0099822720770168,0.0137141128358193,0.0125606962234526,0.0069041991494766,-0.001388282036835,-0.0094664959587105,-0.014381491002515,-0.0141316650981222,-0.0085160532053727,0.0005914345032875,0.0097800421011992,0.0153598779088678,0.0148919932500141,0.0108238186521342,-0.0018524910716699,-0.0115431377153057,-0.0167254466293674,-0.0151964162448731,-0.0075990848092711,0.0028506331530701,0.011830687411017,0.0158153673044219,0.0134842835657432,0.006058834002526,-0.0034170407904676,-0.0113729157947931,-0.0149922716027042,-0.0105922774250069,-0.0039950590950457,0.0021827955801658,0.0094381022619719,0.0122987600835729,0.0121344162410573,0.0051801292529948,-0.0055118320993934,-0.0089248132314591,-0.0126373022451722,-0.0088667008063868,-0.0019647198385743,0.0050483777322305,0.0093424024958445,0.0094243358897938,0.0056461230675809,-7.321361837001727e-05,-0.0051499551184604,-0.0074742976929846,-0.0063069318567744,-0.0025395326648951,0.0018140515854853,0.004658946309746,0.0048546167163461,0.0026901506588092,-0.0004294435166321,-0.0028445319425876,-0.0010291522979449,-0.0025341698983883,-0.0007601396419667,0.0007461299395587,0.0014181239099629,0.0013146647163018,0.0008318357486045,0.0002975871866133,-0.0002352402771423,-0.0008735410503195,-0.0015866202798809,-0.0020206772244791,-0.0016411815597026,-0.0001510698519367,0.0021235872690574,0.0042127983760664,0.0049224655964417,0.0034249165614617,-0.0003932978676191,-0.0060410395594935,-0.0128003682240443,-0.005327884170594,-0.0052566986049357,0.0098954400113616,0.0160820719473497,0.0114329697531057,0.0014355150523324,-0.0034896048096132,-0.0099474276696578,-0.0104014780023914,-0.0131615158906565,-0.0079408405420837,0.0029263365369323,0.0125272337146763,0.0240209503777331,0.0165719392633531,0.0060815680480579,-0.017993564864582,-0.0185231129906261,-0.023064778998646,-0.0090143403002255,0.0182086132403257,-0.0125009458091221,-0.0034844089828318,0.0328875614020383,0.0514261540476499,0.0490596323912869,-0.0336692352885798,-0.1264415909355756,-0.0625266484064795,0.0493257038094027,0.0588999550052852,0.0400939504410257,0.0185550099271406,0.0009737408852764,-0.0090570313366255,-0.0299974189194194,-0.0235041372026136,-0.0014827516480173,-0.0091371964667189,-0.0615763611300886,0.0365797739864496,0.0821636890688783,0.0455798841369083,-0.0095786120879546,-0.0485741736898024,-0.0410387336623456,-0.0260157303499966,0.0164610241317886,0.0317447068946042,0.0147841228534819,-0.0359740282499578,0.0036903807765422,0.0094878356157046,0.0216417726257299,0.030658829087199,-0.0038227330229752,-0.0440452905139952,-0.0169219771433211,-0.009012832266561,0.0141465344555956,0.0017817615321656,-0.027604225806537,0.0154639364600976,0.0671256680567435,0.0251244639258958,-0.0355545520383437,0.0127591964519368,-0.0577334293714288,-0.0631623954228691,-0.0139113397257238,0.0272538070157518,0.1034936594646104,0.042926268589864,0.0148299837774313,-0.0785469997591633,-0.0482687860686234,-0.0208458784581294,-0.0101573731197803,0.0191419939573022,0.0239912703424869,0.0415249926853018,0.0368028141530734,0.0122620394673478,-0.0548205845558525,-0.0493817788229608,-0.0379840846105915,0.0196388560568406,0.0524506519242232,-0.0165986416019892,0.0292430437162431,0.0548313946210196,-0.0275764357808612,-0.1037047946684642,0.050505275335062,0.0216934139574679,-0.0112752256450158,-0.0272050577443356,-0.012807202619154,0.0233985425933671,0.0398333649754656,0.0084824096585166,0.0273583805381612,-0.0202068699342391,-0.0972972053180291,-0.0038543504598299,0.0086755839822311,0.0488620417025029,0.0383544978550021,0.0239253436624713,-0.0053263964081322,-0.0581286146545348,-0.0538296642392803,-0.0060753210724683,0.0621874671735308,0.0551610947023613,-0.0229834422983147,-0.0329416091089756,-0.0126545868559854,-0.0075929867193788,0.0243982241875172,0.0215066522012756,-0.0281947040921274,-0.0142000463417844,0.0082649674880677,0.0333344567359025,0.0356763803680569,-0.0526061737245836,-0.0354066399100013,-0.0454981576372518,0.0354508681666833,0.0771440438519815,0.0344495611366652,-0.0375908654930926,-0.0277922475682678,-0.0267856349711888,0.0133688196420876,-0.0197564797343226,-0.0520185552963687,0.0562703498756809,0.0672864376898634,0.0402303261032343,0.0007827423538755,-0.0741357819076877,-0.1203359298664835,0.0260606195314653,0.0747754081137861,0.0494789280747176,-0.0081164459380746,-0.0169665887099116,-0.0398372943027099,0.0484285594509929,0.0176515095398378,-0.0282522720630094,-0.0592939497079309,-0.0304814866660651,0.0654164657982121,0.0427600973610102,-0.0058556967693126,-0.0159646100819795,-0.0176824111834027,0.002734712305304,0.031317213717072,0.013591890156664,-0.0239252724321287,-0.0477588309884728,-0.0667081342095318,0.0133100896675362,0.0842970092993341,0.0939554838328385,0.0272256035166172,-0.0718322487234379,-0.0407578236157642,-0.0655017560651804,-0.0497255198154994,0.0212941617164553,0.0409018266456911,0.0991188050254283,0.064121107741775,-0.0171603219975148,-0.0966776764023597,-0.0408764862461693,-0.0178924136781318,-0.0513965371551459,0.0742344217998323,0.0755275297117329,0.0210543417181269,-0.019544258285619,-0.0383373903708338,-0.0314123640200215,-0.0137264235704994,0.0075058636052027,0.0341320328387483,0.0354176921318763,0.0052587493703058,-0.0406401274108936,-0.0666998442437053,0.0020459886242028,0.0616086190723493,0.051534279151642,0.0078112867598221,-0.0300799783529891,-0.0466656569615512,-0.045763591132768,0.0119537466840297,0.0441574200050775,0.0362395391630534,0.0166441752499924,-0.0140683979445917,-0.040155276891053,-0.0217646348464663,0.0106070480422925,0.0025490796999895,0.0079243594057807,0.0173947375216597,0.0125858913164001,-0.0019358951873173,-0.0051610272850136,-0.0172486627268669,-0.026811747970944,0.0026001261077601,0.0249111013547421,0.0159475299771221,2.2385005486356562e-07,-0.0046596178170402,-0.0060898334829306,-0.0079056362719256,-0.0081462365136469,0.0070311232822215,0.0092537421665545,0.0046507363956932,-0.0010987863979268,-0.0055726832753296,-0.0090129761389353,-0.0044080105980567,0.0061428312808897,0.0081727590102472,0.0067509061449702,-0.0006860542042216,-0.0092849078568264,-0.0008307316116447,0.0042763651572398,0.0021595809397451,-0.0034145261259652,-0.0075765398592082,-0.0112220824679418,-0.0035406187485874,0.0246012448607258,0.0185241366857496,0.0015614168317923,-0.0112198762347965,-0.0167731649667262,-0.0106822447378568,-0.0020415456739037,0.0061912377714207,0.0105178462999653,0.0072580347708071,0.0007960965637616,-0.0096760441455634,-0.0004661062687787,0.0078040527813709,0.0122005434232879,0.0004311189163272,-0.0226400086251788,-0.0264143620382761,0.0061230080733038,0.0150290567269686,0.0166139134478799,0.010619959834278,0.0027515101738619,-0.0050141269795846,-0.0081511538676568,-0.0156911326027756,-0.0105444002539167,0.0065229451008249,0.0088007115774495,0.0029728375616542,0.0020092914095725,0.0036771307404725,0.0027284820215527,-0.0014349434145723,-0.0025674525328265,-0.0019697457029945,-0.0012189904036239,0.0009351864393418,-0.001160558558102,-0.007483110216167,-0.0119096865422376,0.0100993321682148,0.0130593932984411,0.0086542004837676,0.0019023464286463,-0.0042954033032558,-0.0072901636469409,-0.0061612130713957,-0.0037851341844238,-0.002387387638546,0.0013401605576056,0.0030952056307981,0.0054511985539572,0.0054361732948737,0.0043487329879213,-0.0019161623843447,-0.010030273870103,-0.0054538157136642,0.0037401990022198,0.0083549763944441,0.00336299193918,-0.0054029346088383,-0.0137486738722073,-0.0032702466540559,0.0083265789934525,0.0090656088609731,0.0060558957423269,-0.0012196199825964,-0.0012996063111657,-0.0021468771058248,-0.0017866855291636,-0.0032982710390287,-0.011721219894757,-0.0048905640274294,0.0085092151923268,0.0108345344257363,0.0078992006264159,0.0018367291865499,-0.0038764636833935,-0.0009162563067757,-0.0079274002570612,-0.0057695942822036,0.0015640021329379,-0.0060498644050707,0.0032541968483664,0.0050352396922945,0.0048742250922669,0.0041623502910916,0.0027357229160871,0.0023805260312456,-0.0013681182952932,-0.0094081302491508,-0.0159320109646055,0.0005943288769688,0.0055123154717987,0.0074464718807069,0.0064285197441196,0.0039989834071065,-0.0003538810500519,-0.0019019887203287,-0.0052120212049061,-0.0006753087727335,-0.003959384385277,-0.0020385838537267,-0.0039631141806444,0.002248442833131,0.0087669159284793,0.0065554871532813,0.0010161673507139,-0.0063691668295861,-0.0069779876046095,-0.0005658542683449,0.0024027813011546,0.0045384941047917,0.0022752844209136,-0.0009677434717245,-0.0029181719007201,-0.0034500615770425,-0.0029904365085781,-0.0014832596337179,0.0015706128339535,0.0060697989082502,0.0073227631204706,0.0047241728721795,-0.0005396003115591,-0.0062026130659798,-0.0101231500283894,-0.0088171895695581,-0.0077702701729497,0.008664351859646,0.017030336020323,0.0108656087884595,0.0041860705681524,-0.0097728882483029,-0.014734243334297,-0.0029707815198217,0.0010520731985937,-0.0019966255444901,0.0034587725709813,0.0071913296700339,0.0040386323511197,0.002265030153593,-0.0027572524926687,-0.0043407210642195,-0.0051302716437915,-0.003644383869312,4.16816902411091e-05,0.0043459902886051,0.0070013723336225,0.0062601205902385,0.0019351932442374,-0.0042539823107069
0.0125821294614336,0.0090919758015813,-0.0016119243340318,-0.0081378798032143,-0.0126600927773851,-0.0092154750091468,-0.0031541272312742,-0.0006079751130967,0.0033053516593798,0.0180330651328931,0.0118540263604766,0.0011885458389677,-0.0096067421123748,-0.0127700682399481,-0.0083189722572791,-0.0021176521921054,0.0022874750378137,0.0038982895335555,0.0175057598751807,0.0110494474089063,-0.0044012954492629,-0.0122699880070663,-0.0152505546116146,-0.0061499342889335,0.0007106925042732,0.0055151674455957,0.0124734680055235,0.0174492739594208,0.0066637178226667,-0.0087444210104065,-0.0178178733002419,-0.0150641575851085,-0.0089960972960418,0.0024378860807654,0.0151716608235958,0.0193034811472175,0.0133994104591502,-0.0001522965932003,-0.0164188925425149,-0.0152454233504446,-0.0098780550765237,-0.0040396445507597,0.0051988279241323,0.0119627348920013,0.0126073904457534,0.0073748668921493,0.0010161403466538,-0.0078090784182148,-0.0098423267264926,-0.0112571619563872,-0.0117871604954742,0.0078566443774249,0.0130591046289731,0.0109692542455134,0.006561048016764,-0.0001316530648682,-0.0068095518905431,-0.0090662156704726,-0.0097666083718653,-0.0092376267823675,0.0049615103849805,0.0117752590548929,0.0122954706960112,0.006608692614601,-0.0004704512612164,-0.0090986156997717,-0.0089114903090084,-0.0091927010476276,-0.0027829488692796,0.0010493861690912,0.0042250141111466,0.0090946038355623,0.0178752641074054,0.0066970958518328,-0.0051625857922417,-0.0157654941758822,-0.0161632350059124,-0.0129672073404309,-0.0037552104746951,0.008587690473406,0.0279343583459767,0.0202071530238759,0.0061034096897114,-0.0113194976588855,-0.0199817235072472,-0.017530414712945,-0.0104875339962233,0.0013004108321053,0.0120642674873385,0.0148880287991874,0.0086316841213362,0.0056254337833887,0.0011003354404419,-0.0070479360118371,-0.0104055875259283,-0.0109920128410899,-0.003660844260708,0.0049772174964647,0.0057107445580274,0.0021267362932186,-0.004488135926155,0.0100227177259827,0.0089423270153259,8.192074037554837e-05,-0.0059848215326835,-0.0068532905799541,-0.0060386506416537,-0.0063041457006527,-0.0054072282701068,0.007243911108249,0.0167117409145621,0.0109812753347699,-0.0025625645768576,-0.0090340906244672,-0.0089916062534761,-0.0082977426630209,0.0007689260346705,0.0047016600575183,-0.0001848657716243,0.0100675619428558,0.0075305576533241,0.0007802720788599,-0.0038338385212285,-0.0073057732303251,-0.0076904403610689,-0.0126635070545276,0.0058307079008004,0.0124167651577625,0.0067548009152641,0.0029657364045417,-0.0013604673723796,-0.0002971563930055,-0.0062281758587007,0.0074574804518688,0.0023201950796243,-0.0200903643524268,-0.0214806436566658,0.0073106329229576,0.0181159916896892,0.0122766345815449,0.0116414626072017,0.0038336949415222,0.0055976634125919,0.0053883255640538,-0.0269166844085349,-0.035255049785427,-0.0714166154456763,0.014437328042312,0.1075061288930112,0.0584711870103928,0.0370686686483217,-0.0382850117976853,-0.1142767859571635,-0.0922866173114356,0.0558579265075474,0.0555654414298433,0.0313794349144066,0.0388333821810443,0.0084090908289519,-0.0355375351483452,-0.0527494861259268,0.0087978699706863,0.0172552096555454,-0.0237120530849017,-0.0191702299642465,0.0333983517357461,0.0229863192350249,0.0034682831921492,0.0312789297113664,-0.0005195500065224,-0.0484849856630771,-0.0232976151887411,-0.061820290765573,-0.0021609737179145,0.1167625067435729,0.0683507562806217,0.0028691284689798,-0.091685942027467,-0.0909447804861677,0.0009951782603507,0.0774475785029407,0.0086019359203024,0.0211160473370687,0.0289955754209012,-0.0239668133017884,-0.0276860539121947,-0.0350496095750643,-0.0223585439613781,0.0358076034820594,0.0337332344448151,-0.0342448892235021,0.0112932964007454,0.0852632023902863,0.0062918981519928,-0.0571731641381966,-0.1277410123393128,0.0099616333638724,0.052107960468671,0.0508474311781369,0.0452033062877299,-0.0133149600131104,-0.0151194194025984,-0.0108465044748028,0.0449537814882721,-0.0768348488487196,-0.1143411579351446,-0.014647041336063,0.1300536221456048,0.1168135196650809,0.0268669792914847,-0.0078960313086279,-0.1289346435788007,-0.1022341282013978,-0.0411877743798078,0.0882970788990338,0.1114845529505348,0.0133455326260826,-0.0304489405842002,0.0041849200252479,0.0531601831080825,-0.0598413979058851,-0.0777083357018416,-0.1389619361018901,0.056373547997681,0.1227271434877037,0.1296277291102634,0.0742154374402507,-0.0657573801428929,-0.1859431252978103,-0.065622416994793,0.0332897650147765,-0.0364215283705475,0.1008824134531797,0.0849974109868498,0.0371626348759405,-0.0079236392174596,-0.0220020347420233,-0.0613916163323959,-0.0974064916544701,-0.0422329842406856,0.0719264002974578,0.089293132442161,0.0283432255883121,0.0005517571934443,-0.0376964827628988,-0.0385684701663667,-0.0077107948960465,0.0559355626026855,0.0102735806372203,-0.0566996662297663,-0.0569681999947856,0.0262225235392379,0.0313317048713536,0.0484239169562139,0.0152627397357119,-0.0377022660430954,0.0412248100793455,-0.0198930392382945,-0.0443290990296389,-0.084865892287559,0.0345163394267621,0.0630080701263103,0.0292893480103434,-0.0147702379976527,0.0614617358052384,-0.013736051994113,-0.0776316425539346,-0.0637396522103748,-0.023854289432578,0.1110639925996132,0.0656478519308605,0.0036289662713986,-0.1009082999654044,-0.0548593978815269,0.0521002413828641,0.1077367628276595,0.0177465587415924,-0.1447740721430874,-0.0792527930342261,0.0236794814441192,0.1215828734798468,0.0900289617920529,0.0349481825063205,-0.0722708937123968,-0.1363178822349267,-0.119512258664987,0.0735296183881694,0.0848801158765884,0.1026156840127024,0.0537696071895818,-0.0260330998430924,-0.0779723522472691,-0.0887905714636446,-0.0817394143975609,0.0577535439773871,0.1057488236963228,0.0471337057177665,-0.0437409655687941,-0.0170696813728534,0.0231195625857841,0.0247966720911101,-0.0429983775198112,-0.1008390686835867,0.0144353405235431,0.054865543244408,0.0537927677968538,0.0224916247655582,-0.0412610875408487,-0.0331882017676939,-0.0230904418559181,0.0766555918443356,0.0500702502953587,-0.0525139867786862,-0.1496119059536678,-0.0162488188338049,0.0986670955759082,0.1108456004429418,0.037612039953768,-0.0236594282695918,-0.1039723254019069,-0.0491098676084542,-0.0042608314997628,-0.0187528966879354,0.0899681328225087,0.0582828590390577,-0.0083302485814184,-0.0475891080084761,-0.0162589434057806,-0.0137515584903272,0.0155405559595799,0.0201523890381315,-0.0039173410647888,-0.0256615457652373,-0.0076413720458935,0.0137179889779873,0.0184881042502671,0.0060010393330782,-0.0083738437350725,-0.0003818993840079,0.006209233336557,0.0017480139526316,-0.0166612670432689,-0.0184810796473526,-0.0001729377197141,0.0036403257759424,0.0193235973987808,0.0151536969048431,0.0042335083192122,-0.0069369615066348,-0.0119442577075135,-0.0046090993301365,0.0018635003520008,-0.0041849255595424,-0.0131930246499916,-0.0046289281738516,0.0178703812679479,0.0234123147165155,0.0082532582097671,-0.0108348154954543,-0.0143099599377977,-0.0149722109916871,-0.0064312400448442,0.0106325284426931,0.0133382350823881,0.0031342984197415,0.0008843046314123,-0.003963300964555,-0.0068126250440533,0.0024327044460339,-0.0074342366351761,0.0010364739896571,0.0080355199994917,0.0063785053467325,0.0006420209090448,-0.0010602280995903,-0.0049327450740076,-0.0069663133249263,-0.0068307940251863,-0.0060333807885308,0.0031642945682336,0.017040432091762,0.0178618448811533,0.0081657238849959,-0.0080587676023719,-0.0217500756561509,-0.0236207434188235,-0.0059864421885865,0.0108759274063887,0.0185103473575106,0.0157295783811675,0.0050727554216481,-0.0030387526273148,-0.0004279726283798,-0.011084364502944,-0.0182872232617306,-0.0100491652271337,0.0029184277317919,0.0116945101338007,0.0152852554958175,0.0108721886731481,0.0003549815141932,-0.0125403190611156,-0.0054358247057917,-0.0030061524379696,-0.0014359592807648,-0.0010746727803139,0.0006157817567251,-0.0004045655269216,-0.0038058944939406,0.0026727500682474,0.0214790670931918,0.0081223637253659,-0.006784698675598,-0.014981384630106,-0.0131688953321846,-0.0089951912299944,-0.0016090576873818,0.010462045929783,0.0194099796678371,0.0149420380594662,0.0077119494365206,-0.0087126352531786,-0.0224273067221331,-0.0245987695209562,-0.0033533593010931,0.0087237752324368,0.0157540683683012,0.0161155034774654,0.0090464080652993,0.0016685644076007,-0.0058723108544335,-0.0099031247152363,-0.0150037860431555,-0.0160928986302799,-0.0029983241297627,0.0138141800773139,0.0150565996566931,0.0146415412324394,0.0088356909074642,-0.0027830983446786,-0.0134331955210858,-0.0148560992472227,-0.0122760464209287,-0.0015857971666363,0.0091856597093129,0.0123879111464954,0.0055324779989618,0.0011571107362982,-9.715610559981176e-06,0.0001498112488212,-0.0030363848235028,-0.0030186962923798,-0.0077813445870834,-0.0033998586612349,0.0006598000492292,0.0024034318341494,0.0022727142931432,0.0050938240614267,0.0051687695103746,0.0062060229516634,-6.8442584901545605e-06,-0.003958113733448,-0.0171531624778865,-0.0011738280710955,-0.0001142975664905,-0.0021516484693426,0.0027258976899221,0.008670358315492,0.0084617052087445,0.0091078925796041,0.0028859286738799,-0.0092155254515537,-0.0142897317727217,-0.0048445119187874,-0.006515953958368,-0.0048902473099059,0.0039627434739808,0.0068762202301333,0.0115518982626775,0.0222123436594847,0.0117820359184868,-0.0117080080618581,-0.0206188292195597,-0.0202808943985291,-0.0080170279771191,-0.0091350924271663,0.0002379900598767,0.0221259441302927,0.0296706880165668,0.0197729131326699,0.0017309712587675,-0.0158360085820637,-0.0280765968020862,-0.0131632525766389,-0.0097772464270923,-0.0101664583294088,0.0096742242979553,0.0231232450534397,0.024794487976426,0.0131167463295116,-0.0054141374017935,-0.014482070319339,-0.0172650353271613,-0.0152576107517338,0.0018842307653022,0.0046869119906675,0.0044740759722424,0.0044713228446819,0.0033502201942844,0.00020773893647,0.0017841865701078,0.0086502996499791,0.006940420646509,-0.0026868181851118,-0.0076336022049191,-0.0154546331164599,,,,
0.0173216404060977,0.0066105145300843,-0.00677703581392,-0.0221906651203092,-0.0196225118812595,-0.005178851733677,-0.0018981830415684,0.0010222329436059,0.0081431944214968,0.0107541372903031,0.0109193244399806,0.0144284860586356,0.0045087983463153,-0.0069249885458536,-0.0160528230801433,-0.0202468980083617,-0.0162878960295973,-0.003708941122871,0.0109638361419164,0.0267202634536146,0.019535320335089,0.0071571756661894,-0.0044168419246916,-0.0106921694752975,-0.0130917935649289,-0.0160052966969842,-0.0178789038879422,0.0055093763731857,0.0163836449784599,0.0176653104396491,0.0086925270717712,0.00034947289938,0.0014856270089622,-0.0045032907655004,-0.0159834729998643,-0.0136498328380575,0.0022336656228766,0.003449389899719,0.0038151584962917,0.0082218208721875,0.0087570041231118,0.0029910389501659,-0.0058677828355016,-0.012608284337477,-0.0002256875486841,0.0059399048344884,-0.0006882381360662,-0.0011774145143871,0.0012819147751398,0.0017602454870929,-0.0009681478829303,-0.0007572057138637,-0.0071642602693969,0.0025686571192036,0.0072509708120224,0.0065508343300347,-0.0007538614165422,-0.0062505781561989,-0.0061223289830426,-0.0009442761151578,0.0003063630210375,-0.0009974109343413,0.0004990823955764,0.0106861969660385,0.0058890498436425,-0.0026660700833669,-0.0072065622255362,-0.0045045747128087,-0.0037317676880072,-0.0055758094482895,-0.0032869821919238,0.0167695960617441,0.0149722740328789,0.004131881663506,-0.0056478172567636,-0.0108995127049781,-0.0145794261579638,-0.0142245080213149,0.0022218169491332,0.0136460451381309,0.0146999304311703,0.0133934249694074,0.0064174918661111,-0.0048217695964594,-0.0143317772739042,-0.0147269972488335,-0.0144397982101625,-0.0072380892788569,0.0157808779199572,0.017942401921079,0.0122705148658202,0.0043706988075296,-0.004234769838661,-0.0103881412545499,-0.0090405164343423,-0.0062718634551493,0.0007055202053717,0.0047456685545327,0.0043222395217703,-0.0008447044202583,-0.0096176713166472,0.0072695580029588,0.0085649527758503,0.0058378420943417,-0.0004240747365043,-0.0035738190155677,-0.004474857794943,-0.0019041720003649,-0.0041054374680165,-0.0076493386961545,-0.0111936903475438,0.0073563501174815,0.0152351353428453,0.0114159046052927,0.006672995608644,0.0004753918689551,-0.0053137594685435,-0.0093271524497066,-0.0121335155582847,-0.0117037735068694,-0.0029613078194976,0.0045352887105015,0.0062792520152277,0.0196894400425974,0.0164747785493263,0.0051688202981659,-0.0083030875198478,-0.0157022114406812,-0.0165985590620423,-0.0095345639043447,-0.0044996286063681,-0.0002560260496474,0.0076099771620187,0.0254506657339408,0.0212438949713916,0.0086874783154332,-0.0079996317249792,-0.0231007577745225,-0.0251912555844599,-0.0123680614090583,0.000361089500389,0.0105658267629911,0.0152189226294476,0.0122804695353478,0.0179317768447265,0.0081788786307783,-0.0061134516224962,-0.0210184595975829,-0.0220809157452964,-0.010621507254188,-0.0016313546957382,0.0061683883504847,0.0089921750137438,0.0179732585366459,0.0215711315365403,0.0093969545006999,-0.0061070787947177,-0.0188371257881242,-0.0257304439441963,-0.0211729152403476,-0.0010558387221424,0.0168616905429024,0.0188556014452072,0.0169729893384689,0.0108741001207563,-0.0010645848421948,-0.0082811931660691,-0.0139153011221619,-0.0137758261658217,-0.0110923460011922,-0.0026858309747226,-0.0001009275099007,0.0169499880260659,0.020036421335463,0.009920439929869,0.0025945127657185,-0.0062919844535465,-0.0126932791461378,-0.0178446128322228,-0.0191185482485727,0.0006482000170894,0.0185355056977536,0.0202986042856681,0.0112785899958893,0.0017796326474836,-0.0082614326701916,-0.0137843351764545,-0.0118484138872517,-0.001127232787332,0.0023582834405684,0.0060964535917361,0.0044313088297782,0.0053276530425343,0.0044207657924213,0.0002069498162405,-0.0101439493436091,-0.0060114801614185,0.0028171680470341,0.0020456018072307,0.0004441709710467,-0.0003164006433361,0.0001163164393665,0.0016865744033328,0.002426350695813,-0.0029769152228405,-0.0038951218016966,0.0069916853676293,0.0026729051220707,-0.0007830209356138,-0.0036151872783497,-0.0046827293779702,-0.0059734810826008,-0.0068420329924144,0.0088549789067055,0.0148951617621663,0.0079518706710155,0.002489313711157,-0.007262044395539,-0.010747966415748,-0.0113666194099402,-0.011401662365425,0.0016568038712845,0.0139007331883121,0.0158288442693526,0.0106941194240665,0.0002554274724677,-0.004205492526928,-0.0090259989920233,-0.0141942924461435,-0.0181504712175015,-0.000321226815775,0.0163519920062281,0.0170227837255796,0.0112017416694606,0.0038448079663041,-0.0098561800984578,-0.014373499734012,-0.0134701333849445,0.0014154910069867,0.008995385291124,0.0087083793461618,0.006109330002555,-0.0017303656842234,-0.0142274876656455,-0.0074186687490386,0.0084724523234087,0.0124061470101898,0.0097379061521166,-0.0054916041758058,-0.0162390718528387,-0.0086871518051244,0.0043415425174738,0.0072526875988797,0.005376958114039,-0.0013717738983505,-0.0050623208533008,0.0087769645727744,0.0057448465191551,-0.0023647906351332,-0.0141450273205866,-0.0155964328020757,0.0026205749217408,0.0082372952311762,0.0173191688912294,0.0241962204403588,0.0311916700838474,-0.0416805869297174,-0.1095338148261459,-0.0023164613988384,0.075487665811536,0.0718816348662883,0.0342662113089334,-0.0288455731391373,-0.1023264935064166,-0.0315758905045978,0.0131920684331426,0.0720978090962677,0.0286121941521899,-0.0186723862534417,-0.0284477906511633,-0.0274682680887371,0.0491202604454953,0.0117354700386305,-0.0126400446667869,-0.0519069576589482,0.011360398788003,0.0464086189737798,-0.0440607407366335,-0.0348682709432694,0.0904763741642564,0.0735331125569167,-0.0418711676538658,-0.1181413881872018,-0.0305559368507961,0.0397850570537016,-0.0957513730003695,0.1413166231016657,0.217105765446374,0.0158252449712853,-0.2032044548312856,-0.2556986586308549,0.0040066371674587,0.1015499609308359,0.1902581670043407,0.1017004255588735,-0.0233147545955702,-0.1105044288949852,-0.0691876231870029,-0.0244897773358649,-0.0279380787469097,-0.0568973185497085,0.1330127175060401,0.0863201923990491,-0.0014477139071506,-0.040655781592404,-0.0466666994704108,0.0195430192105137,0.0035545799249833,-0.033358826137935,-0.0893556593672218,0.1394698861195517,-0.0020148629573079,-0.1162332157053932,0.1056832214414743,0.0669979974079945,-0.0425833411555604,-0.062673014345182,0.0465070703879944,-0.0012403794877859,-0.1434056419364353,-0.0085510860252675,0.1540311774329849,0.0805771907243562,0.0015450311012285,-0.0754625932192642,-0.1411930524943042,0.0328788991435149,0.0806926600211753,0.0047015797756657,0.0131814050204737,0.0102223883459571,-0.0383520413537448,-0.0331887756322927,0.0282100808140511,0.026775166778962,0.0004502655156801,-0.0101098399874363,-0.0193087604691276,-0.0245354114267899,0.0415306514849226,0.01501014683823,-0.0469597553230051,0.0144393571683234,0.0330277019667012,0.0146003855035172,-0.0185130371155414,-0.0414880527083343,-0.0150277431613761,0.0258352969200395,0.0209420758922592,0.0059679329781467,-0.0091498153830804,-0.0042851840742434,0.0007559008863075,0.0023374092835843,0.0009593355279737,-0.0070304288010005,-0.0053151569225946,-0.0002755349893037,0.0034144813642819,0.0088751721749484,0.006077778339927,0.0016186376960401,-0.0153587074549477,-0.0165022762850024,0.0050076426941415,0.0083439659163202,0.012529039762214,0.0169330929166632,0.0045237648798998,-0.0171200321877902,-0.0146075352942819,-0.0148311488319084,-0.0145497788233493,0.0040412389460196,0.0160446268199689,0.0241323477332408,0.0264563261286632,0.0108032095666749,-0.0174725444479138,-0.0324195044537485,-0.0249807432027506,-0.0339429370936282,0.017884718054968,0.0403537911487984,0.0314377669846977,0.0089286247922663,-0.0098609720729015,-0.0196808722425666,-0.0082372726491522,-0.0083268092587626,-0.0115402145063196,-0.0055668744402889,0.0097283823267139,0.013333263529177,0.008299407264418,0.0141777237793817,0.0053847307650563,-0.0070739256244982,-0.0164512893583306,-0.0161068902038061,-0.008626799589245,-0.0002654235900816,0.0100705093213627,0.0110204207121972,0.015472893369909,0.0123506841193746,-0.0008828698742271,-0.0103722880503135,-0.0167980228270909,-0.0186477133262091,-0.0142937019080669,0.0095473688651871,0.0205662539166941,0.019828853161639,0.0121013275372273,-0.0011245510267295,-0.0101495032445018,-0.0152777563212653,-0.0156792818340986,-0.009434995482387,0.0018460694777014,0.013931122883755,0.0159639183397872,0.0100833723894782,-0.0012080963360225,-0.0072116432302528,-0.0144390851257432,0.0026329959994346,0.0056919502613206,0.0004052878489825,-0.0058656823219211,-0.0060503325330211,-0.00503416108555,0.0062571507084432,0.0096186702947269,-0.0015476901736706,0.0064599207567296,0.0105132287387182,0.0042248037633377,-0.009070840649981,-0.0156547601386818,-0.0166634667106786,-0.0107260651825646,-0.001967004122168,0.0207190180615048,0.0268038174427022,0.0198713282747184,0.0028062889986962,-0.013159120931699,-0.0217310558135388,-0.0228583282792723,-0.0167020786716353,-0.0013181529311247,0.0161736121203506,0.0260414370883205,0.0228939142173114,0.0115256999182473,-0.0052133214106361,-0.0201521584264388,-0.0312206284320316,-0.0108823082116495,0.0016011514741629,0.0102185519740847,0.0119307928904072,0.0094792692853794,0.0161460785031318,0.0081386487603264,-0.0044014344453977,-0.0164586479401811,-0.0230384941838314,-0.0200612631447221,0.0065366490962766,0.0183241781415918,0.0213460393337623,0.0135321220495394,0.0004619237562572,-0.0099852721374353,-0.0108913984837063,-0.0134443254999695,-0.0146384612626556,-0.0051193364525199,0.0134864953586056,0.0222661584748154,0.0167254987433903,0.0045476903191896,-0.0065509550729133,-0.0149445743339569,-0.0246802577953831,-0.007056303130096,0.0029531803649437,0.0104864945526752,0.015298558566979,0.0131522141558691,0.0060215775266972,-0.0046727609923162,-0.012697391789674,-0.0116731470861753,-0.008643520329708,-0.0017708238057071,0.0075442607773368,0.008142354806161,0.006621417076004,0.0026969513365232,-0.0002331247984355,-0.0008328616729502,-0.0028604170053985,,,
-0.0077465047673371,-0.0024055959047395,0.0038213886599269,0.0081899988134331,0.0088315708997865,0.0055296042720503,-0.0002281222774916,-0.00594108489822,-0.0092100932050479,-0.0062655453147928,-9.506249701591535e-05,0.0027298987122987,0.0044356975454019,0.0057860550445636,0.0039715728721659,0.0002296690989904,-0.0034253782635462,-0.00526578031141,-0.0046402792467533,0.0003574875879635,0.0008185388026926,0.0027825867202374,0.0029644503923596,0.0040394410293225,-0.0006405755053034,-0.0025988687879727,-0.0036737156904107,-0.0012165367114037,-0.0005646467243431,0.0002008492090532,0.003002823844296,0.0028746844920305,-6.0160025908633786e-05,-0.0006666115671411,-0.0008882483907473,-0.0028614170961045,-0.0015720804499576,5.505584348029977e-05,0.0038009535143962,0.0014657056850684,0.0002590227682233,0.0005668503634238,-0.0016775417258134,-0.0029892971090199,-0.0028300734484058,0.0010620655143489,0.0031378123165635,0.0023661171817648,0.0027467048198772,-0.0007683191755497,-0.002626754555922,-0.0044081165440232,-0.0028082642032764,0.0023829603516727,0.0059477265638898,0.0023075459429516,-0.0019715851711258,-0.0020950555221397,-0.0023279849693643,-0.0018363649839776,-0.0003015843293454,0.0017722604412346,0.0033325777420619,0.003402306200991,0.0016502350033397,-0.0014051485154167,-0.0046179157279661,-0.0066840356826729,-0.0017390005418513,0.0006145281856863,0.0044706058300537,0.0057744623526943,0.0049067584817062,0.0031008847952187,-0.0022386080967485,-0.0071461156593569,-0.0066589152773415,-0.0051810244792542,-0.0012644645709371,0.0045589333755261,0.0070733061601591,0.007607104385001,0.0053394739812585,-0.000643276391784,-0.0116468043386624,-0.0075055132163196,0.003277855564871,0.0035772370989399,-0.001772630350327,-0.0081492696635797,-0.0040799636972765,0.0060904429554767,0.0199366751868015,0.0144139367139774,-0.0016514572556939,-0.0175090535187158,-0.0199841538877199,-0.0196026352277734,0.0046192433470025,0.0167776878208535,0.0204983888474946,0.0173178751186585,0.0028811436205089,-0.0233514976868736,-0.0127745978926997,0.0012588201889605,0.0060878294907534,-0.0130708655659355,-0.0126708462707552,-0.0114938735318464,0.0312911390045179,0.0353474052577074,0.0230489316002675,-0.0022752898865444,-0.0380804471510115,-0.0613468974114885,-0.0192532577059006,0.0203730215910029,0.0408094975974889,0.033663857798633,0.0271350036008009,0.0115907604312966,-0.0330721034624873,-0.0628352690885857,-0.0368872573362787,-0.0050256958108747,0.0415334339185767,0.0636667508445783,0.0373328626514287,-0.0018405220137811,-0.06015806113103,-0.0691152049302039,0.0281086012148038,0.0321515142476716,-0.0075229343390141,-0.0044863404269743,0.0052669732130868,0.0162402995014263,0.0123493193316268,0.0184551891846338,-0.0158615264778111,-0.0212705658700722,-0.0366731689920609,-0.0171216735233246,0.0207052813892624,0.0240270180399633,0.0243493990852993,0.0101736774267031,-0.0082937975370263,0.0211042041860515,-0.0248144041308933,-0.0137379762556117,-0.0332884164447001,-0.0598210981063016,0.0530260003918469,0.0612332205028571,0.002280234374481,0.0337601133471485,-0.0008225789583394,-0.0625982829169783,-0.0523170634980515,-0.0084718906462392,0.079861984479382,0.0320189539682115,-0.0477520111570761,-0.0386880677303447,-0.0103358452902089,0.0753820085159053,0.0492644540929912,-0.0090023430839594,-0.0906152667197002,-0.0958633373217715,0.0834141640413877,0.0755371063277154,0.0399878729286298,-0.0349405426333279,-0.0815266856632888,-0.0490149146106412,0.0169804283073236,0.1265979011372726,0.0567449636297195,-0.0611617306653777,-0.1157793393958308,0.0109313487642363,0.0246194188004578,0.0487452618801539,-0.0040457810390537,-0.0752296994277242,0.0143316184922503,0.1077965299194895,0.0173192767754837,0.0121095586503004,-0.0580693167927012,-0.2058078307291191,0.0468732634193193,0.1081120623848152,0.0672720744058674,-0.0120125835118852,0.0048611965593526,0.0203493165822754,-0.0135745524265983,-0.0467875764965801,-0.0633915375621767,-0.0598347967210017,0.0629466675380795,-0.0089843899983759,0.1559652175395691,0.0229775171934769,-0.0455393623896915,-0.0603179377561333,-0.0450462184277679,-0.0138454027201888,0.0007019306275103,0.0206132351710224,0.0271310422452167,0.0152210143122967,0.0084183721728086,0.0063129857248537,-0.0050639475704755,-0.010627754796322,-0.0114774470724452,-0.0047187316901618,-0.0060838001278529,-0.01019396434028,-0.0098966059640941,-0.0038124458531642,0.0070567197526702,0.0394359313887296,0.0762627873874407,-0.0127440053927083,-0.0771842497875845,-0.0063371674725166,-0.0671894943812795,0.0532430663959455,-0.0438524750638818,0.0326251156770665,0.0745284008087971,0.0074533316577645,-0.0272895786688555,0.0207095071600522,0.0722783186616125,-0.0711213924944967,-0.2028380408978038,-0.0281658831150722,0.1022338605184638,0.1240270551339225,0.0817556765907546,0.0115039552533987,0.0031212064022073,-0.1334678739789389,-0.0531778947505511,-0.0839498313246714,-0.0664054028926481,0.111909805708806,0.2065214357246851,0.0480424518264168,-0.0895503453589294,-0.0058285556112348,-0.0379702603139411,-0.0736027775432298,-0.1399174212701063,0.0292535480541698,0.1455764750812337,0.0993927485967159,0.0183761076041865,-0.005603589716003,-0.0501253722856477,-0.0717707077331029,-0.1296251448599866,0.0325851732605585,0.096246282464832,0.0484168485930772,0.0072929086491358,0.090061124776289,-0.0276733164532796,-0.1508056793039941,-0.1107148286644438,0.0725642052475372,0.1268809426217775,0.0904357001346341,-0.0842743783827976,-0.1418343571126697,0.0569238527144165,0.0867784068222727,-0.0091794990578223,-0.0336312486237986,0.0024842414807655,-0.027673366792109,-0.0127160995170321,0.0145856364681896,-0.0047065780894221,0.0331390504770051,0.0151922797758083,0.0459663457554695,-0.0234582999095173,-0.0225094305211462,-0.0629436807024108,-0.0930595020963383,0.0424839861753578,0.0988805682208331,0.0695305688107185,0.0297596463401405,-0.0225259966089075,-0.0993534976485173,-0.0534712374680466,-0.0104125015615455,0.0160423521471912,0.0556414063244595,0.0362076287382564,0.0075240401622415,-0.0049644040717295,-0.0094125128685406,-0.0005437753320053,-0.0243433328560663,-0.0353063951034441,-0.0007767873610263,-0.0092478711055918,0.0394541329721927,0.0355164687139017,0.006268170822766,-0.0123467574513247,-0.011640577488567,-0.0058152654062098,-0.0035072228298699,-0.0224256852744415,-0.0334572679710902,0.032005275115059,0.0432267742502226,0.0162497997830274,-0.0112603279218714,-0.0229320723258367,-0.0148177843052927,-0.0064049163702495,0.0040953721037578,0.0130161152211507,0.0122789194336392,-0.0004413915894969,-0.0045565427115211,-0.0112760370040139,-0.0147805266595507,0.0114408825744494,0.0178910162165228,0.006414352443657,-0.0051418337237216,-0.0095189593232872,-0.0106841810265325,-0.0031966864944503,0.0037260948330924,0.0091003774419054,0.0080947562767665,-0.0024323430067546,0.00078324353798,-0.0016901984520224,-0.0161699439403519,-0.0004840388650081,0.0132757866597337,0.0053788690254528,-0.0019946125224367,0.0067637477994763,-0.0038551869115442,-0.0262186723532454,-0.0104911006455803,0.0166072273604477,0.024576236512105,0.0164363258083683,-0.0024312256307986,-0.0212666630709747,-0.0206072460847428,-0.0081570970915559,0.0059307871253653,0.0129571946977964,0.0119060463635148,0.0094596841680428,-0.0141427642031283,-0.0045076861512598,0.0118615359575456,0.0015026543995654,-0.0071165335239707,-0.0131061568198752,-0.0110527299299954,-0.0024751604316112,0.016066443898778,0.0181199104701668,0.0112332771795253,-0.0022273657536422,-0.0156931494016144,-0.0131846464089341,-0.0073477372314475,0.003120139361411,0.0081269278988164,0.0067010115051746,0.0033614750539264,-0.0009990475509142,-0.004411286841642,-0.0054357631975783,0.0068626634118653,0.0057698366439508,0.0013212183869822,-0.0055735232000434,-0.0103929774198667,-0.0123843151693559,0.0092010918157489,0.012203254134334,0.0069075622992555,0.0016885412510042,-0.0018452166098274,-0.0069801408751172,-0.0060382179444863,-0.0026437006158815,0.0032850596936747,0.0038609047634545,0.0016921892132456,-0.0011057402147954,-0.0077662641023809,0.001892548078267,0.0066397652173099,0.0057516122913823,0.0013959705411827,-0.001209195456043,-0.0044065637994496,-0.0079607616385244,-0.0101794390742151,0.0020084833627166,0.01132062710845,0.0078619486221074,0.0028613892076216,-0.0011218198934368,-0.0028396231347474,-0.0061466550271782,-0.0031829148218259,0.0002933018312384,0.0015681730587048,0.0011951348157567,0.0002049170831263,-0.0003411928534277,0.0001315635834345,0.0013705531774202,0.002399808618476,0.0021115405274975,5.4418682913034695e-05,-0.0005838668966177,-0.0032103767915329,-0.0062113203992586,-0.0039201199175074,0.0004034348843337,0.0048239330078756,0.0071397131840107,0.006045317655508,0.0019093293324537,-0.0033200156340569,-0.0070841382783316,-0.0075449364917393,-0.0045349964020829,0.0028819826049883,0.0047329095977445,0.0064159683419816,0.0047808824403777,0.0008751898957558,-0.0032633639761905,-0.0057518108367522,-0.0032467394850989,0.0012144220058339,-0.0008926319740218,0.0012326735140611,0.0019820396298625,0.001541669370829,0.0006092301628897,-0.0001563421983192,-0.0004840085905529,-0.0005070313183814,-0.0005195406191782,-0.0006790847027384,-0.0008671060177227,0.0016855593550305,-0.0004051090450986,0.0001416904291498,0.0004255113957456,0.0001998428761021,-0.0004064220608227,-0.0009327821656769,-0.0008804986659313,-8.553505028419146e-05,0.001084280363804,0.0018871573192263,0.0016758287694886,0.000387054908092,-0.0013137041083958,-0.0024017597973581,-0.0021772016114814,-0.0007867974869778,0.0008364368513964,0.0016319162746359,0.0012063836461881,0.0001413202838629,-0.000471156298896,6.489254716860841e-05,0.0014129727253784,0.0023657038891247,0.0017193761829497,-0.0007618584667722,-0.003981489755128,-0.006028635414773,-0.0052921799315968,-0.0015067045362859,0.0039092777802628,0.0084511021131753,0.0097465568998728,0.0067491356371418,0.0003208112548393,-0.0070369352271209,-0.0121724603345701,-0.0126177050322381,-0.0077651811933418,0.0006432039179448,0.0115683591984182,0.0185407064603551,,,,
