0.0036298910678254,0.0013381253763519,-0.0041916870020277,-0.0055275697210315,-0.0015359206175613,0.003957874502088,0.0026712549520096,0.0023106024485156,-0.0026887482777517,-0.005618323036021,-0.0051418391089738,-0.0020009862751399,0.0038394709308452,0.0070230506773467,0.0080454205295945,0.0048612309787755,0.0002032910418775,-0.0073465333038387,-0.012141599190952,-0.0087646861366154,-0.0011605240548345,0.0043953988458154,0.0088029573250245,0.0116153628156401,0.0053924570144565,-0.002770599193893,-0.0040323212081292,-0.0069504680364676,-0.0071048720300737,-0.0048025381280507,9.117159708813512e-05,0.0048170866940199,0.005054210660079,0.0075606892610721,0.0034866410740286,-0.0013982948273276,-0.0062257239699499,-0.0061306248309885,-0.000907154914221,0.0044654871573112,0.0005620080723166,-0.0004520002463743,-0.0010526191071552,-0.003911441952327,0.0007201371447797,0.0029719989679927,0.0056884357541873,0.0040744694473785,-0.0015166267714604,-0.0039789776945512,-0.0034959026833834,-0.0030447086905849,-0.0027867875877659,-0.0006005701211974,0.0036079220668953,0.0028625968687379,0.004472844678253,0.0010354969496982,-0.0002459136130449,0.000431683376322,-0.0017875558175553,-0.0042177781209699,-0.0020671316968625,-0.0024172122089229,-0.0002739954622972,-0.0006518116703929,0.0037188163067984,0.0052824033776109,0.0065015079924507,0.0004101441529721,-0.0028890891670281,-0.0047707722065105,-0.007279152372293,-0.0056500661318791,0.0012859967462092,0.0046909760633335,0.0055277732942969,0.0057372307583663,0.0039157220604099,-0.0006702265123904,-0.003638979287883,-0.0065279374653054,-0.0070572039177234,-0.0041276920443366,0.0035042208909054,0.0053488512211186,0.0062844866335063,0.0017853724039589,0.0020502055527003,-8.819985737031998e-05,-0.0025146265273644,-0.0003660297727546,-0.0035908633536865,-0.0066595420100047,-0.0066673896658317,-0.0007458927529384,0.0057633103773698,0.0094371748895908,0.0084642133736419,0.0067756782234597,0.0001308655904527,-0.0069109708810474,-0.0114573247376366,-0.0112982704823326,-0.0085726286621371,-0.0005406855799504,0.0092357036098192,0.0150007624510215,0.0171718794694761,0.0069003729846827,-0.0034615582904836,-0.0150306164306686,-0.0150818709113336,-0.0118106288715315,-0.006442080395631,0.0031389665730158,0.011474919278402,0.0187341081677833,0.0147325040604116,0.0033823934617907,-0.0056513026580676,-0.0144260323026476,-0.0161990435815825,-0.0106315089295159,-0.0021148642708757,0.0061980494472844,0.0128959850859284,0.01052673252342,0.0088185122981872,0.005280827043863,-0.0030562763650637,-0.0097569940371834,-0.014901136579022,-0.0114464608026355,-0.0047816617838219,0.0061367947074298,0.0148571609587504,0.014660552056138,0.0078484158921067,-0.000980183773891,-0.0139579083483009,-0.0136917423454097,-0.0084725478023403,0.0046303160135388,0.0126822099797835,0.0070679742748321,0.0007054003161344,-0.0125309319226894,-0.0010322953239415,0.0041499642688562,0.0039969230197665,0.0017864338933247,-0.008924872243243,0.0029231004588829,0.0055492709246139,0.0027285614281611,-0.0035803935586625,-0.0045422131665603,-0.0065744344295792,-0.0109175164324086,0.0105394975426529,0.0154128532939809,0.0066482873248004,-0.0007723343213638,-0.0098031592942206,-0.0076103037334737,-0.0013913941124154,0.0002998081495046,0.0053941264997727,0.0039184554728061,-0.0018786308072233,-0.0091217903702897,-0.015921956862674,0.0110483623058333,0.0238499404601312,0.0154434384291747,0.0041329687728425,-0.0127655105990948,-0.0329403035473789,-0.026349260086858,0.0090911525660246,0.0206658530339313,0.0187275763146615,0.0080137391869591,-0.0094160277408147,0.011003885531437,0.0084938048601174,-0.0116438698358594,-0.0180713720423887,-0.0249651168104556,-0.0053954038201769,0.011991343439486,0.0163669224198203,0.0160076626982187,0.0175602537080059,0.0006569308896194,-0.0177534300692691,-0.0088824806372417,-0.0061601233918641,-0.0081936205179603,-0.0073899017399358,-1.36346963184514e-05,0.0081380963310019,0.0111435407319255,0.0147053466989533,0.0079619899797796,-0.0045356331088493,-0.0083657340301297,-0.007681910690165,-0.0103970810115436,-0.0051957703288606,-0.0036678964185837,0.0023828154696699,0.0083275969185188,0.0135742376735778,0.0125380490887879,0.0018538639993782,-0.013139401432007,-0.0098708348345381,-0.0033893338336075,-0.0006865760807642,-0.0017652813317127,-0.0047812217585022,0.0050104827260746,0.0062334809247939,0.008865668478389,0.006691656177311,-0.0030027028597297,-0.0059188330319601,-0.0094066702708644,-0.0023480138047298,-0.0023158955432895,0.0041849766680457,0.0009066781817481,-8.680881013439282e-05,0.009254200002752,0.0028331862808674,0.0020056270354173,-0.0023668029097908,-0.0140088612646883,-0.0052509046467536,0.0001556673847779,0.0055388110030003,0.0045803004439212,0.0085065278651658,0.0093685866386126,-0.0029386689964576,-0.0111506072694798,-0.013243608887386,-0.0040071511997817,0.0039345458483905,-0.0041641887962569,0.0154540776978888,0.017174670559795,-0.0030675256304847,-0.003107411762115,-0.0120705268942026,0.0017259497001683,-0.0081251515389687,-0.0068594789133508,-0.0094590738774077,0.0150475344941142,0.0272404929460307,-0.0004967897848314,-0.0141675834269085,0.0048450722494567,-0.0180057380313734,-0.0115883025295294,0.0165790951302977,0.0025344393668548,0.0235451387564729,-0.0028758757459525,-0.0283266937914674,-0.0201120709510249,0.0072770155374695,0.0242608588251404,0.0109198642787306,-0.0017181937566707,0.0081217291770477,-0.0001224871230865,-0.0179686589806805,-0.0290698098719377,-0.0035926748736993,0.0099132347466044,0.0224296489542687,0.0194559523219702,0.0021471514065211,-0.0101938708062097,0.0013403453456356,-0.0192792500190453,-0.0202826967085285,0.0093081340685496,0.0098097410600862,0.008121881942207,-0.0022767171361817,0.0034594504032652,0.0140888332731381,0.0021642509228012,-0.0137618161247979,-0.0222000562333465,0.0036075708813553,0.0081186748500141,-0.0085910184648033,-0.002631703561309,0.0261347344758605,0.0200643881623496,-0.0037764498454285,-0.021505185218813,-0.0186271283697754,-0.0084652155099743,0.0033093044988093,0.0074321268752805,0.0120760019165004,0.0076112120607543,0.0040861483597058,0.013834610403245,-0.0075306916228565,-0.0205627385511655,-0.0104804615432775,-0.0080921433702411,-0.0001641282411425,0.0002052447743608,0.0142868948888192,0.0258559088605271,0.0091113683281038,-0.008789852896395,-0.0071939847962911,-0.0051392731728612,-0.0141692992398746,-0.0242439133617026,-0.0093391934118303,0.0206227542226283,0.0257769375920465,0.0159001928580336,0.0031961839407968,0.0003819344040302,-0.0057347401361868,-0.0184136916011647,-0.0238055761210904,-0.0081319345709434,0.0050910182876159,0.0128616629014716,0.0145257506623999,0.0131949876715674,0.0047230754591523,0.0023123574456353,-0.0022529091215975,-0.0171151208268004,-0.0203419628847963,-0.0053230331563443,0.0028167194890008,0.0071577387936529,0.0130431561561413,0.0081390113437735,-0.0008246751587836,0.0084980710428163,0.0010174890967097,-0.0062109321668193,-0.009857647351799,-0.0117053147759502,-0.0065388851760367,-0.003150178178851,0.0023831114094742,0.0128709866235885,0.0168272662652253,0.0108438331467363,-0.0009677448324925,-0.007908986453871,-0.0125771023483493,-0.0099488633202704,-0.0072710275892865,-0.0016913613752822,0.0025311367769048,0.0105024675544286,0.0098971848872788,0.0071163995733369,0.0012979506309519,-0.0008312734143416,-0.0036014559053739,-0.006258182523422,-0.0100886450305659,-0.0100635788702186,0.0012513476751114,0.0063263710392793,0.0092967533288787,0.0066390499549872,0.0021315600693598,0.0025858156107866,0.0004256590782717,-0.0040316834215314,-0.0099537091534425,-0.0036088839767924,-0.0030581269186554,-0.0043150485812038,0.0025250525907231,0.006711443575053,0.0090851307799142,0.0080274637636585,0.0031371888073613,-0.0024712481105908,-0.00943178029233,-0.0118022470135498,-0.0071639905233186,-0.001655801673443,0.0046757278787412,0.0096735903962431,0.0125284186473736,0.0066095700499923,-0.001062491567175,-0.007852837780986,-0.0116369500275592,-0.011620797544343,-0.0012863831691103,0.005280869815558,0.0104068024061801,0.0100634206655688,0.0064113555330989,-0.0015144577886758,-0.00890690162784,-0.0107283662031339,-0.0083611478085563,-0.0003623088581385,0.0050577536517697,0.0109470029041387,0.0068214388276375,0.0017029183772791,0.0011368251596905,-0.003568413143473,-0.008633594937217,-0.008367454019414,-0.0056001596571361,0.0028999059862253,0.0067487178754158,0.0109443450139212,0.0064045865457026,-0.0009755454237947,-0.0056714736335705,-0.0043670023070944,-0.0047221027710313,-0.0040330878271804,-0.0033547734800856,0.0054488655285531,0.0061249484977969,0.0026463719452879,0.0016725177448055,0.0009325240735985,-0.0015128670818853,-0.00221456121862,-0.0026020215066397,-0.0038396605904704,-0.0051699184973974,0.0031462504233942,0.0054104451205434,0.0045267488012775,0.0028549523224282,-0.0013765856090561,-0.0028350847097315,-0.0010969777413931,-0.0018563765046454,-0.0041491064209235,-0.0021694259972279,0.0020090271550764,0.0022782586648168,0.0045696447988815,0.0047933860488615,0.0015720811205457,-0.0025894359884597,-0.0046503847826237,-0.005746258313837,-0.0014394821462235,-0.0012962616990688,0.0018009382427915,0.0038440129548723,0.0046817752896821,0.0029298816759001,0.003002735543614,-0.0034261150478696,-0.0030936058127201,-0.0033483821994789,-0.0045198230768999,-0.002129642872307,0.000842295988903,0.0015994950849442,0.0045209485601786,0.004260489079802,0.0049549600621839,0.0011040605594905,-0.0024894027072153,-0.0077535320795248,-0.0034408562235396,-0.0024004245956111,-0.0009343791786745,0.000992586961849,0.0042482608534776,0.0016348176134829,0.0036450752717206,0.0049963664301074,0.0002482499256575,-0.0031210437684119,-0.0027604582965717,-0.0052040786735222,-0.0045247762692369,-0.0013149141558007,-0.0012508988703901,0.0058950575314021,0.00775798418174,0.0064498371742274,0.0001043986338725,-0.0059038846524972,-0.0049110548204794,-0.0042991654569078,-0.0004833812113152,0.0014447976394772,0.0016046241492571,0.0012233941206872,0.000411557491929,,,,
-0.0099404003573727,-0.0003589983362425,0.0064715855975474,0.0101545816798706,0.0116437757780821,0.0063170626214497,0.0009279275767543,-0.0044784135241592,-0.0074591784530964,-0.0089369911998353,-0.0090348204961389,-0.0043659825145697,0.0026940203174325,0.0095257839805251,0.0092664221444145,0.0113897337957466,0.0052771361497373,-0.0039948821144351,-0.0109110938552729,-0.013348381462273,-0.008510318769479,-0.0027467798146459,0.0058402484386248,0.0119273972932103,0.0110710783781897,0.0059057090985269,0.0008945506875072,-0.0081256715246017,-0.0090006954594043,-0.0080952961030438,-0.0042737850450919,0.0023456334881178,0.0042911112978994,0.0079015680967928,0.0070121927862279,0.000960691950958,-0.003325177968449,-0.002877731501203,-0.0031850710190667,-0.0034452144686387,-0.0023477704908864,-9.656209310643764e-05,0.0016978111814471,0.0045601968295625,0.0020730909653493,0.0008886886027766,-0.0002401312767228,-0.0001354293797004,0.0005975124348915,-0.0024686138915773,-0.0056934500456831,-0.0008776262883042,0.0001863026794783,0.0043423618523779,0.0033226878860144,0.0033359039124822,-0.0007586663582686,-0.000765109716236,-0.0055090148914974,-0.0065851303578046,-0.0014435812127939,0.0043743877740215,0.0097115662768291,0.0059794177935888,0.0001102601080779,-0.0049602772036344,-0.0097559807179596,-0.0070447865672808,-0.0027660954708395,0.0050421105858487,0.0089229149177611,0.0075957645108633,0.0059275790222218,-0.0009069461943024,-0.0075696416901759,-0.0075021331327443,-0.0068697156892695,-0.0045733129096506,0.0020816346856435,0.0044203251065169,0.0104401763903002,0.0054157725653866,0.0040102962927174,0.0036070900708679,-0.0046878834986831,-0.0152634021359073,-0.0142771227898839,-0.0038769341980831,0.0078322747936448,0.0133569362338783,0.0116794412668994,0.0087857328789608,-0.0055989428155368,-0.0220577375100882,0.0062970240347425,0.0093450755504883,9.550676278541251e-05,-0.0164237037682048,-0.0235140720567358,0.0012290954748001,0.0308011033354011,0.0258622918763025,0.0147919971316303,-0.0073247411375144,-0.0355078977354998,-0.031956338361619,0.0007578681400471,0.0186729805012198,0.017403452072346,0.0082474416967508,0.0029336721071586,-0.0024733482815941,-0.0041528679344459,-0.0052559928120703,-0.0193062552103257,0.0110082717836968,0.0158661401099426,0.0023370527636737,-0.0123728638247199,-0.0252173269965686,0.0029535627081276,0.0267741388149538,0.0172423327650241,0.0052937444790691,-0.0123599733207448,-0.0327851740914079,0.0016717374002066,0.0166851556230976,0.0047449607921353,-0.0080529804954774,-0.0071064796231613,0.0018949081520415,0.0099716078802988,0.012156652181934,0.0079928950010654,-0.0052926768156394,-0.016704793674346,-0.0276114548411747,0.0073841800117651,0.0154218464794548,0.0102196781244414,0.0049726407250109,-0.0018148392738935,-0.0024948218628818,0.0009839954428521,-0.0051420089033492,-0.0020705820241123,-0.0030090206262515,-0.0060508090968049,-0.0016558143461719,0.005899293681832,0.0073085244626842,0.0055737015610733,0.0029712298886106,-0.0008136023125338,-0.0014116625431638,-0.0061892901369018,-0.0123510820634801,-0.0049261476989071,0.0045034060910812,0.0066417198118123,0.0033961124098548,0.0090777455571651,0.0065195330015761,0.0010141804745229,-0.0041308376403898,-0.0159159178925096,-0.0169029747950966,0.0005225131085038,0.0099176392111258,0.0114290094755346,0.0119438736020942,0.0030009150458101,-0.0018463363902905,-0.006369713518285,-0.0062280078927624,-0.0093560010656321,-0.0208134188907932,0.0090570329158244,0.0237838799540948,0.0133197789648774,0.0032264975643307,-0.0084675156291631,-0.0071007941047313,-0.020133085637337,-0.0047962423693666,0.0131342892267779,0.0075613654676112,0.0042285108699221,0.0059049463179207,0.002820232956835,-0.0140769677315041,-0.005139829779699,-0.001222339982317,0.0029986798892152,0.0002271123992172,0.0018618271837595,0.0032288999277795,-0.0063817666382471,0.0103113570425441,0.0077490301518919,-0.0031493458862617,-0.0043572215540788,-0.0055367578143032,-0.0091339160510798,-0.0185891990385355,-0.0002739809072696,0.0209607394732998,0.0285627250605172,0.0131986908894431,-0.0038679344809166,-0.0167043301546252,-0.0184411797948397,-0.0202115672615825,-0.0152318206535956,0.0065759500630917,0.0198885046886124,0.0222943385440191,0.0235021301275969,0.0124714050248939,-0.0119414175262281,-0.0265094892195301,-0.0233529927303428,-0.0230498227375822,0.0030323301811341,0.0150017123866161,0.0144179066589993,0.0175108482520381,0.0171510364351034,0.0098326319926028,0.0003009044210573,-0.0209852268781006,-0.0370724161486467,-0.0242856070271662,0.0098644848197967,0.0129607640336118,0.0162491431190305,0.0221587435371632,0.0126967147258155,0.0035550227896412,-0.0096632633167818,-0.0149982377154665,-0.0184885041657838,-0.0139021440340231,-0.0212749832030254,0.0199150777098022,0.0257615149547566,0.0336112860853955,0.0092201485217512,-0.0358775291278747,-0.0235421263054175,0.0164743480720405,-0.0019438707707524,-0.0039347102904189,0.0035794588173529,-0.0074047454149967,-0.0041445174329325,0.020452635081691,0.0109770079602008,-0.0118237050136081,-0.0122426507514179,0.0011245078541466,0.0066695945475757,0.0032649474330524,0.0009050571450705,0.0024052736550872,-0.0021581176335964,-0.0088640768747435,-0.0246478072056746,-0.0002549581822451,0.028282757556694,0.0230298363890008,0.0047322919934639,-0.0067129030366494,-0.017050790473766,-0.0224299309948184,-0.0020563360139544,0.0085324202416369,0.0045916899286976,0.0028884520164291,0.0145842238164024,0.0064159160821026,-0.0033490263094656,-0.0131725010171613,-0.0074956669624385,-0.0002295279880756,0.0055787380614289,0.0059965188480717,-0.0080295978793143,0.0008670535198629,0.0053201844223529,0.0021851641640877,-0.0052390452193167,-0.0058573402517914,0.0015299740911615,0.0098104240519053,0.005986069764487,0.001030673320026,-0.0085764160255558,-0.0103980410637473,-0.0035205674870826,0.0042103003557408,0.0029363435793196,-0.0021006937275719,0.0015688424757025,0.0132375426485833,0.0099352319096566,-0.0037956218830374,-0.0091574433618732,-0.0104856799197828,-0.0110932904570533,-0.0030703871129697,0.0035688029100077,0.0068410545012992,0.0152898826966885,0.0172307289583121,0.0019128552102393,-0.0161882930876923,-0.0150057473386024,-0.0043338089124645,-0.007694941958432,0.0005219638210281,0.0070582723854701,0.0056013947192965,0.0057331723357897,0.0145016538510917,0.00997299763687,-0.0065039775983372,-0.0168055037101801,-0.0141583514026697,-0.0084938494271182,-0.0025809781294884,0.0043330979634389,0.0057615787046455,0.0198998509641039,0.0214286439858163,0.0040334899831885,-0.0135244705151402,-0.0188005522227717,-0.0175437153254869,-0.0105102878247201,-0.000311709731594,0.012212243891123,0.0166313126989494,0.013990897291639,0.0073330627265923,0.0013206771311786,-0.0088829081057523,-0.0123073498683162,-0.017584418140782,-0.0145960584736276,0.0041882740873394,0.0192720127531566,0.0173784881859783,0.0057957574401069,-0.0060175433280159,-0.0039403719503504,-0.001773801128061,-0.0050349882483549,-0.0059728017388953,-0.0026807877302021,-0.0021993415364128,0.0018962615275408,0.0054411981416773,0.0075630924562672,0.0027328329385472,0.001912273625545,-0.0016793910277863,-0.0033286170353577,-0.0037919089869799,-0.0066252577969968,-0.0034445064018111,-0.0026768740735374,0.0049360272010856,0.0122876162166163,0.0058474897808722,0.0018650474959516,-0.0048348894979601,-0.0076170028915716,-0.0077365690712537,-0.0009070983972361,0.000466693846722,0.005059560149029,0.0042706968622769,0.0061813596127496,0.00138955448329,-0.0049775044214812,-0.0097647360949551,0.0005798929429503,0.0042363917546287,0.0020545402730963,0.0006087653694382,0.0001103538484544,-0.0015997660804562,-0.001304951223103,-1.734714024034203e-05,-6.459584816552383e-05,0.0009299407317445,0.0004192702138682,0.000440774215315,0.0004304446794326,0.0029069840922964,-0.0011609247924815,-0.003067614935997,-0.0011131229703187,-0.0015877243680387,-0.0019409275861769,0.0016552791930304,0.0029328892681308,0.0034634067407451,0.0027731503370456,0.001451728492844,-0.0048906471774377,-0.0035975697855549,-0.0017889010354941,-0.0020779294731418,-0.0022086492849256,0.0021256420161606,0.0034182319928105,0.0063424604166698,0.0057076712182883,-0.001002989905356,-0.0038520267201312,-0.0071545414910349,-0.0050400923779773,-0.0014553377784676,0.0014654828031529,0.0008212104210143,0.0024005444316491,0.0070226415408352,0.0089103127277572,0.0005042024945906,-0.0050949971915539,-0.0055657828484391,-0.0107523863433214,-0.0066163845605603,0.0023011183540168,0.0067456185006873,0.0082119228037258,0.0107474315739027,0.000296916135026,-0.0055674653732638,-0.0062449312626134,-0.0052776715781324,-0.0042522917267634,0.0001092705454437,0.0013310082337877,0.0040575912417373,0.0058210762546138,0.0055828916478086,0.0014982144133866,-0.0050623912934657,-0.0076792712470647,-0.0033821803530079,-0.0026662439599254,0.0023783096852846,0.0049553244892541,0.0034915824089127,0.0032090178354835,0.0032387830856001,-0.0010890918098603,-0.0050107135916576,-0.0072878507214811,-0.0059749862711458,-0.0003861491175707,0.0044488930642521,0.0060294724782093,0.0080243947040701,0.0053940332286088,-0.0002465694782418,-0.0063324412933707,-0.007899470151735,-0.0078488228561628,-0.0030294491415741,0.0002145006213636,0.0043499282274107,0.0087680515360328,0.0091473148017615,0.0052920658832742,-0.0013309003153689,-0.0059070690966123,-0.0108727958921756,-0.009869201649137,-0.0029887952069245,0.0038856647280689,0.0082580988245677,0.0076937946621336,0.0057796697543981,0.0029304761879473,-0.0013690461804866,-0.0091322345835259,-0.0087282211218096,-0.004280973097504,0.0005687732912856,0.0036301703714226,0.0075083281199475,0.0056934736739232,0.0051248348343089,-0.0027672268815809,-0.0114574791441022,-0.006522477334389,-0.0011912581240792,0.0050803973120258,0.0064534721229259,0.0059009329856317,0.0017905902226044,-0.001845537373132,-0.0069193089947353,-0.00714272418599,-0.0010322626184662,-0.0002305856926294,0.0044754472788873,0.0040334929089783,0.003657064779609,0.0025858350764259,0.0013903152994489,,,,
0.003293876202204,0.0048865625257255,0.0040782112733976,0.0014330122541431,-0.0015952186167217,-0.0082443337166866,-0.007597497060373,0.000418832535689,0.0023901231740405,0.0062830223942123,0.0077590873555781,0.0036536183947901,-0.0029171642326823,-0.0046528655349017,-0.0064244671711336,-0.0065612930368361,-0.0027854945103887,0.0048300216721856,0.005529831589393,0.0062163670422531,0.0061250353482035,0.0022524316125388,-0.0042815991658612,-0.0073592452747977,-0.0078454159713796,-0.0064689955380373,0.0016918234094459,0.0061384596511177,0.0073366922406342,0.0049732674415324,0.002778598087776,-0.0018857012687262,-0.0023461514848745,-0.0050931218155158,-0.005999973054018,-0.004184073685392,0.0013188793288183,0.0051386905628466,0.0049811894467101,0.0039229911581365,0.0029911679200148,-0.0018831355219359,-0.005480461740275,-0.005156381511295,-0.0007441617651446,0.0004376549959716,-1.1322510145201249e-05,0.0015947463257072,0.0041341137912296,0.0044673980976108,0.0028504574056149,-0.002087480898028,-0.006639314403701,-0.0074410518151171,-0.0043294150178906,0.0020675845945753,0.0079658110141272,0.0096629017234854,0.0044362388996721,-0.002185021128037,-0.0056141249384827,-0.0061037072058949,-0.0074396112008624,-0.0032309139906005,0.0034452571347569,0.0041354923687126,0.0035852609693559,0.009459547896138,0.0078147353641051,0.0004050454145071,-0.0095638029131214,-0.0136978224054471,-0.0110099669216899,-0.0043705210308954,0.0126156335753068,0.0170666396738137,0.0069102849682871,-0.0116024931543878,-0.0076590220957075,0.0158284533730347,0.0099419569542939,-0.0059806104657415,-0.0260169639394896,-0.0332996702664994,0.0078467451848657,0.0356396122920889,0.0307563047908869,0.0089630988371155,-0.0121501783509053,-0.0373135446084117,-0.016408576132248,0.0104536573959867,0.0120152035558385,0.0069792765788568,-0.0026968055082014,0.0009322011920299,0.0006241684913412,0.0036148005979228,0.0076967938905363,0.0033465114809081,-0.006718247151104,-0.0242750826909882,-0.0290346749868649,0.0217335383338697,0.0292085805081015,0.0209188109259801,0.0039925191615211,-0.0079105115827903,-0.0227464824543362,-0.0418644872637693,0.0104408530289284,0.0259017759450782,0.0211497448781702,-0.002453403861124,-0.0277597967508742,0.0118757056232659,0.01539072410833,0.0052551176117105,-0.0069138727137183,-0.0175971091542979,-0.0143461056784879,-0.0050154599436017,-0.0077969281184906,0.034579665398226,0.0347590473419994,0.007452531281603,-0.0277263776612024,-0.0392908001150471,-0.0056869618611821,0.0110028728814731,0.0109526229681381,0.0077016832681743,0.0098545430830502,0.0015515367773293,0.0028529260136214,-0.0025642661514032,-0.0120642648860924,-0.0335070008714773,0.0076824456514383,0.0212094544491595,0.0158234035750785,0.0049052925172237,-0.0003884316278608,-0.0043770208038546,-0.0116031235395191,-0.0137548381708669,-0.0122598150427952,0.0071662731282328,0.0152816384708981,0.0174368981413664,0.0068137885202283,-0.0037772142578901,-0.010979587585277,-0.0140591170395976,-0.0055501801292525,-0.0010951284700974,0.0015920729672294,0.0043430664947877,0.0151062671105272,0.0070419648940324,0.0019119899186619,-0.0041136084200327,-0.0069400562128866,-0.0086071267740245,-0.0090126245856826,-0.00784204469526,0.0033734964289218,0.0137932677317047,0.0144365139462827,0.0055955006904559,0.0022913729440322,-0.0040897164274977,-0.0106101202218767,-0.0189817540527699,-0.0040458739076847,0.0014836055715123,0.0091476499421194,0.0091993023657398,0.006222328218722,0.0091866482636293,0.0034262617698273,-0.0116264795917201,-0.0131453085770664,-0.0058605531485133,-0.0047717625064557,-0.0001928098226378,0.0149201594793661,0.0157761858499515,0.0008503377973213,-0.0123155584560908,-0.0102954606187464,-0.0022632797225031,0.0071358040049538,0.0037623442855698,-0.0028016819299806,0.0106020203927986,0.0016982433550371,-0.0169320755860936,-0.006030099911409,0.0081250519141979,-0.0020374477886758,0.0043587533937023,0.0101074537974807,-0.0091247145660659,0.0040846441124813,0.0075506061479561,-0.0038673545810075,-0.016271828979812,-0.0062862257791369,0.0101492175928882,0.006306149839702,-0.0002809236644108,-0.0029269573437124,0.0027051021901124,0.0082414135550413,0.0043592288313249,-0.0049942128702173,-0.0141142191293088,-0.0136508893570746,-0.0004460477829173,0.0173494016976393,0.0140602653415536,0.0010150639362524,-0.0145940970961047,0.0135487743838081,0.0084449671761384,-0.021700804987125,-0.0199670460107273,-0.0044962545899518,0.0125527181919624,0.0126773740572112,0.0092373592136696,0.0189728628030153,0.0058634929691675,-0.025131256041889,-0.0249535148603591,-0.0027967168306295,0.0029855518591292,-0.003690120415701,0.007889135265822,0.0205509985079818,0.0128538592831271,0.003484303768557,0.0057502194113352,-0.0103807940950511,-0.0426016644721555,-0.020123578471006,-0.0020465829504097,0.0328704327032764,0.038289548277973,0.0134208540071696,-0.0172181948181134,-0.0165454871072442,-0.0088440747580912,-0.0159181428009044,-0.0002981431734758,0.0092896272742393,0.0131520553945924,0.0046111678644072,-0.0043934915727657,-0.000193137119872,-0.000847452100178,-0.0017267821821916,-0.0024310250703204,0.0011912736152847,0.0080817372766596,-0.0026080609279309,-0.0031520836389242,-0.0089295761204559,-0.0127509299204709,-0.0029745422422062,0.0254714873789397,0.0229942179798799,0.0021996829271063,-0.0139692282485981,-0.019029188644686,-0.0123297135825156,-0.0013021665240896,0.0102469406765675,0.0033555000394277,0.0044325328017065,0.0037416344006836,0.0150672976952884,0.0051689320417863,-0.0139685831980497,-0.0166763059725456,-0.0094605400832285,-0.0006008705449793,0.0035506110674907,0.0131714405249852,0.0131791003927524,0.0030860188703161,-0.0024260376990375,-0.0056763220267071,-0.0128422796795754,-0.0124707267000343,0.0054481344726472,0.0117321364963726,0.0067111650948428,0.0017174958580872,-0.0047874613232113,0.00199603693327,-0.0016042832013248,-0.0088392538657957,0.0004336238074009,0.0011595059184291,-0.0030883339360281,0.0082717819077397,0.0070629000252158,-0.0027185056704925,0.0025834986260593,-0.0040879500333141,-0.0074669486651958,-0.0063789628538646,-0.0043326293962125,0.0044712126022103,0.0099517155545673,0.0104916786141726,0.003960330329786,0.0008766837556613,-0.0055270436849887,-0.0132632125634903,-0.0147724736448815,-0.0030622653705247,0.0048657743322303,0.0095103000143055,0.0155220782540988,0.0116083647975918,0.0031705514972438,-0.0051537231626088,-0.0133787373160111,-0.0178629216260351,-0.0150712091923883,-0.0027196910087479,0.0163108791604984,0.0186586369918671,0.0165706235134541,0.007329775578702,-0.0062451532701063,-0.0136139201418353,-0.0157155532843225,-0.0125934724525411,-0.0039500982364981,0.0045830582746026,0.012027914329978,0.0164609239826835,0.0108117598223127,-0.0006039956593534,-0.0048411507943447,-0.0114935351630785,-0.0092336670338771,-0.0087794685050201,-0.0048903371562638,0.0072453209352765,0.0114373693105593,0.0076619775549265,0.0045063516639354,0.0017755239510299,-0.0009946580447663,-0.00737481211241,-0.0073860565260908,-0.0070106046704668,-0.0032739319432971,0.0018981754783826,0.0043383516265519,0.0080310199078017,0.0084964415085081,0.0046801588057053,-0.0015418334697284,-0.0060269633399621,-0.007876519341815,-0.0094641720873592,-0.0044795394474375,0.00329684172386,0.0075764958656086,0.0074165146109192,0.0049973252981198,0.0028988036716286,-0.000289093279652,-0.0056455805225297,-0.0067983031805615,-0.0054599813874753,-0.0018835895324831,0.0001408696859615,0.0033978931608124,0.0061839951179356,0.0031022173792415,0.0021739506751273,0.0001025656705514,0.000925186393121,-0.001662379070793,-0.0053887299139562,-0.0081473800871248,-0.0002186746879675,0.0020609693853746,0.0013134283990821,0.0045905368095831,0.0055744314850296,0.0023654504083366,-0.0011847083900658,-0.0023512335452854,-0.0013799160385408,-0.0030496960899182,-0.0032257957585054,-0.0048833679260844,-0.000283384730137,0.0025433116035055,0.0060256764750442,0.0071949044478002,0.0048195771011701,-0.0009626322740906,-0.0070572141615366,-0.0063942535867559,-0.0055408671632542,-0.0035879166141127,0.0039971721662572,0.0069237324557317,0.0058373515042607,0.003817329115432,0.0005876076794523,-0.0061162167319999,-0.0078375705931341,-0.0022665028267709,0.0014475986624629,0.0039657078260159,0.0043167068950797,0.0028608785992713,-0.0039753844157572,-0.0025654567898235,-0.0019532983238318,-0.0003208088307924,0.0007926694454821,0.0023642085493615,0.0037243559503186,0.0012447220175614,-0.0009498062227168,-0.0033198521583188,-0.0051148597448728,-0.0047716467626667,0.0033857381189865,0.0050031830695645,0.0060714690219006,-0.0009842295168548,0.0026703759340725,-4.183588600837986e-05,-0.0040921940495337,-0.0062311253956508,-0.0073948485723666,-0.0029272870001829,0.0044715417262452,0.0076664219218721,0.01124234565317,0.0067398480897446,0.0011381268776155,-0.0078460359527352,-0.0137275986884803,-0.0107001749444317,-0.0068043075171835,0.003685805883113,0.0110668483907348,0.0133668644240208,0.012085072396283,0.0031373215609816,-0.0062757651662333,-0.0108536402055583,-0.0136217207888542,-0.0070380459284802,-0.0027142221117592,0.0038477739748803,0.0075708796133837,0.0121681803748857,0.0110618052621433,0.0033466466689345,-0.0045189049463473,-0.0091205485402553,-0.0103538999963877,-0.0084515605344835,-0.0011344115166923,0.0013807284775341,0.0064752301145371,0.0066402695795487,0.0065974313664415,0.0036037207879944,9.946207705651536e-05,-0.0014517084693614,-0.0028238087348272,-0.0030980803944273,-0.0088086183440717,-0.0100351349061396,-0.0023161766261337,0.0035790777284053,0.008468491629718,0.0131614904704316,0.0138772939606151,0.0032731928116499,-0.0052397235462592,-0.0140423282024398,-0.0150986795320477,-0.0132305065800731,-0.0055685009954767,0.0061379881697339,0.0157525104453126,0.0190240359832828,0.0153198210808881,0.0066538096771391,-0.0091454873435308,-0.0195144595429197,-0.0216294601033147,-0.0141522463609303,-0.0049183429556908,0.0110511172974702,0.0192907003832812,0.0208550724587141,0.0156430375853412,0.0042128883616699,-0.0091008272744422,-0.0215652632598596,,,
0.003088906119477,-0.0110907414069322,-0.0137635280562934,-0.0153343555802231,-0.0092582836748544,-0.0025095575401308,0.0080057929092157,0.0148484615647908,0.0170954686358062,0.0090569852266281,-0.0046042262688866,-0.0099569052430046,-0.0141665100060927,-0.01138677719773,-0.005397840885277,0.0018364829151275,0.0082251663919072,0.0112981541664552,0.01247280262161,0.0063510050119855,0.000580001840387,-0.0072780230566655,-0.0124286919028125,-0.0144553024642396,-0.0089043493776131,0.0007065707141597,0.0092185380605564,0.01446201976613,0.0141645336473489,0.0072218438613575,-0.002187207387042,-0.0114175416226877,-0.0141315630896569,-0.0123179398728949,-0.0037306959086637,0.0042625738905316,0.0122301890385334,0.0127863286076486,0.0069379281568818,0.0002302339690948,-0.0076137407426949,-0.0084209368589396,-0.0058133932123445,-0.0058497334513928,0.0007135169638988,0.0058860349415823,0.0078059044337955,0.0063800116352593,0.0029646789061845,-0.0053793033105633,-0.0071346328561483,-0.0062433165538246,-0.0002285126904009,4.753787063748287e-06,0.002697871333194,0.006081207491771,0.006696171685516,0.0043974632963874,-0.0049453847233712,-0.0076122495203535,-0.0065216260829571,-0.0051397685021176,-0.0004076557220875,0.0041955413112878,0.0092905426724374,0.0078615766028217,0.0058733116551249,-0.0017187380695336,-0.0060458911762513,-0.0096670676731482,-0.0105286837083124,-0.005516710629048,0.00206472031999,0.0097094171737198,0.0100905340824628,0.0086165523218728,0.0074901071364185,0.0008149797381167,-0.0076686869681426,-0.014605811491346,-0.0155975963217835,-0.0188148754000132,0.0099463175587099,0.0210413795566429,0.0172319672511689,0.0158841349488598,0.0060284474595479,-0.0086093490678649,-0.0245908733519639,-0.0405149266366159,-0.0042717364600832,0.0409838430326403,0.0255242256503439,-0.0147433301497765,-0.0246953667446178,0.0248911530313363,0.0181870408993578,-0.0010560371049337,-0.0249855757307248,-0.0452972888828023,0.0190435728597567,0.0340364197125279,0.0189245493952455,-0.0164541992748813,-0.0259910808402497,0.0158540108428933,0.0147549172747972,-0.0051254295408293,-0.0316873682484288,0.0017894226147827,0.0179465508974892,0.0134205089483413,0.003983486791158,0.0001909695626246,-0.0167858926013792,-0.0200338540990503,0.0266420682032553,0.0088281388711354,-0.032117892102159,-0.0049445106566657,0.0169220565664158,0.009904879262835,0.0171513966110193,0.0063254279536379,-0.0051915955525536,-0.0155931411525272,-0.0377034410178475,-0.0233562562246853,0.0299079707737278,0.0363622913915813,0.0226602058923677,0.0028317104151806,-0.0129490440299791,-0.0297729636318555,-0.0378401634300917,0.0159685059679139,0.0268924870648651,0.0138313574183665,0.0049135969862247,-0.0072456132593889,-0.0095159397174265,-0.0152473464204818,-0.0069141115873401,0.0162307558708739,0.0177052181379996,0.0025038637703168,-0.0037693316860059,-0.0103185092221709,-0.0125669201358904,-0.0061091856339105,0.0055874583320655,0.0092541482593789,0.0060856278448244,0.0072415927374484,0.0009216223034819,-0.0044566492825191,-0.0071306202810431,-0.0058921744258336,-0.0005585317858333,-0.0045719730695017,0.0014611622383848,0.0074754424606344,0.0021103509387228,0.0048388437442894,0.0101758443910614,-0.0026682496326935,-0.0106553583294598,-0.0131398385595149,0.0015942272030679,-0.0006469583934826,0.0026846699947122,0.0103311982255193,-0.000886827754511,-0.0015320505773005,0.0111121654493523,0.0021388636844354,-0.0069369869395547,-0.0128360603162638,-0.0085408903927585,-0.0015529779119157,0.0034242641410294,0.0172854901248827,0.0090910732250618,-0.0016543580303881,-0.0016612787036403,-0.0107797079654227,-0.006721508584965,-0.0006367395521411,0.000727032097277,0.0020415452017646,0.0013363740656381,0.0039981883472275,0.0093808415160516,0.0050840773759758,-0.0083298161987117,-0.0115345913933813,-0.006485915042331,-0.0054762749829115,0.0049397076522324,0.019015925104696,0.0105479656408663,0.0025208572671996,-0.0080219740679387,-0.016678281134963,-0.026804998426514,0.0077065526769763,0.0208038972279047,0.0143669369305932,0.0077203689783103,-0.0068195512111183,-0.0041543063621621,-0.0081932013778954,-0.0085095749695333,0.0005318425206217,-0.005572355446654,-0.0097654326729148,0.0180035469781898,0.0310322822837779,0.0077831836442794,-0.0235738067138842,-0.0217311483254023,-0.0015867266647696,-0.0074801275030455,0.0096324965411306,0.0155031238510528,0.0074528794129065,0.0018976475934293,-0.0076393921929541,0.0006101000129424,-0.0064227591895874,-0.0186378547129266,-0.0006901104333643,0.0112219308577721,0.0120627036070153,0.0121116306800842,0.0013008375630988,-0.0081996363869016,-0.0076997908697672,-0.0099927541537215,-0.0053144804994278,-0.0014356420722147,0.0032248489549963,0.0067084865733055,0.0121593202501279,0.0130434291714859,-0.0020454851349624,0.001427608417673,-0.0118265554077987,-0.0267897359435897,-0.0201545053156169,0.0174653998085811,0.0214899668296299,0.0134684692207154,0.0030954239274654,-0.0057292708052786,0.0060323835850723,0.0022866224984192,-0.0158790969110555,-0.0278625875247617,-0.007230199117413,0.0073616566961909,0.016259366798997,0.0243694544062966,0.0159717891312439,0.0016579490973788,-0.0174959702594831,-0.0280423124339325,-0.0164853835164735,0.0012187549044437,0.0144377427348616,0.0132856779477996,0.0046110137126773,0.0118524966845366,0.0092184464305353,-0.0072699250834458,-0.013699692706092,-0.0225929415972264,-0.0178304697996642,0.0116826604466475,0.0216702883484546,0.016709643187549,0.0038967967635321,-0.0043991712457546,-0.0022162198185484,-0.0071423815534961,-0.0104690212849127,-0.0067574039071249,-0.0043665702972574,-0.0007292241727496,0.0082160797427424,0.0142629099728666,0.0126825221143602,0.0051492736301787,-0.0111971614511818,-0.0074199893666725,-0.0066052390463802,-0.0086027600214988,-0.0094175336516456,-0.0017194989517061,0.0110405851357081,0.0150600405585092,0.0096481253533428,0.012064380586913,0.0041343748984043,-0.0168497741483879,-0.0280225267552849,-0.0112258918553139,0.0007393842500788,0.0085063097267843,0.0116570453465508,0.0145601143639501,0.0102036461248273,0.0050779640622805,-0.0033051926639096,-0.0136581005690612,-0.0164324324776273,-0.0167135388730388,-0.005726744320101,0.0151381031459837,0.0165441831602054,0.0147885885577566,0.0063577599203987,0.0002938614139392,-0.0081233865318138,-0.0134949788979627,-0.0131234829034295,-0.006970980932676,-0.0005255421339737,0.0077213576425703,0.0146042793891267,0.01194341258174,0.0042666213088362,-0.003733547843494,-0.0066307510864068,-0.0103968983513365,-0.0062805225347298,-0.0022419064155387,-0.0001314545726185,0.0025241524741063,0.0071620677027059,0.0050311676759624,0.006671833462871,0.003671513597325,-0.0025642593379384,-0.0095597207741075,-0.0112986825312333,-0.0009373089976602,0.0044129142447945,0.0038562413374297,0.0023603436125958,-0.0014326571699837,0.0002453209933458,0.0031680577719695,0.0061958401903428,0.0019519056835901,-0.0013548679983666,-0.0073094874196869,-0.0095372218122296,-0.0046301965738914,-0.0030376490922461,0.0059227231303819,0.0101973017924679,0.0104149842645818,0.0066541160993279,0.0004824864235828,-0.0096844644455482,-0.0110206317202747,-0.0112477691006391,-0.0061936529150982,0.0014133812522498,0.0121763513484886,0.0130932108295574,0.0102740771993379,0.005542347014323,-0.0068818175019795,-0.0130042877965297,-0.0128031744218179,-0.0085075279580011,-0.0005202128162893,0.0096270440888341,0.0108847719765646,0.0106929676952229,0.0041362539658819,-0.0013956926312742,-0.0074741519627371,-0.0105109283214975,-0.0063070275655731,-0.0044477583900436,0.0025861389384425,0.0067441372779507,0.0071249595689235,0.0068964952264481,0.0035268389987693,-0.0028271119443494,-0.0060568303702859,-0.0070841097702799,-0.0035860867265367,-0.0034561282555012,0.0002603059785455,0.0032145279022808,0.0092977465628227,0.0076692924135612,0.0018886905432627,-0.0027609861956085,-0.0061336032898334,-0.0092470324867181,-0.0026882792429443,-0.0001590415826675,0.0038119510696304,0.003164891906754,0.0050708407515187,0.0031241142246723,0.0015298920459798,-0.0032552066216446,-0.0027004671741872,-0.0039551690776683,-0.002650110174743,-0.0003975685595782,0.0010682474551786,0.0024482891411878,0.0028455323776486,-0.0001839799668255,0.001881623188043,0.0033281483580906,-0.0013403633017614,-0.0038468510547446,-0.0040880879749136,-0.0025748527854222,-5.280370478512595e-05,0.0028008966135291,0.0030871567785674,0.0027164405323214,0.0015131332032895,-0.0010459886241417,7.789759760086513e-05,-0.0022132399989812,-0.0021981281801051,-0.0037630418315827,-0.0014405413466556,0.0020733209335643,0.0036919032461609,0.0046593718381985,0.0016138977202177,-0.0008794141719931,-0.0021311109999956,-0.0056067315181953,-0.0026139419323497,0.0002947910886851,0.0031211932759779,0.0023401060076306,0.0015316917900053,0.0018387598449277,0.0008166494128088,-0.0036916808418619,-0.0012513712039593,-0.0012793574191898,-0.0041090063886143,0.0017132195926208,0.0037575006378398,0.0047627378584778,0.0007038089513584,-0.0025093596574566,-0.0041468507923005,-0.0016454083845791,-0.0002941582787714,0.001370191737064,0.0024557906581449,0.0026315387879161,0.0022826417104474,-0.0027329238839667,-0.00444487655242,-0.0029361839296605,-0.0011330958362998,0.0026425280249291,0.0056335002924941,0.0027878131962615,0.0020492425994765,-0.003374518199743,-0.0061101706864259,-0.0034701400008297,0.0016476579167421,0.0018124611895845,0.0014576012773423,0.0029267586997595,0.0014540302810332,8.318547273288779e-05,-0.0030576457146974,-0.0024360043278633,-0.0002453681613111,0.0010098906461627,0.0005374714162358,-0.0003502078004969,0.0020523803537589,0.0022815998445402,0.0007750899004795,-0.0035569652929627,-0.0043139933481125,-0.0028153141924696,0.0008118273894116,0.0025838799269372,0.0077608906765425,0.0044345157585646,-0.0004101374440352,-0.0029673400379932,-0.0076386943839447,-0.006552628230375,-0.0028880626370557,0.0029170551086637,0.0057934385128624,0.0073540436822898,0.0052689265429181,0.0017164963883204,-0.0042364638741534,-0.007790918320564,-0.0069845760725961,-0.0035241086397503,,,,
0.0074433141446462,0.0046003380438439,-0.0008237278283107,-0.0063705764318094,-0.0072758173603921,-0.0069493980719157,-0.005482225239412,0.0004300662638455,0.0036096595845421,0.0069040713351283,0.0091452014356164,0.0055995010241501,0.002712276324751,-0.004572464360043,-0.0097069575624538,-0.0092313727367,-0.0035303602835721,0.0009378917454032,0.004698752450334,0.0035893679796482,0.0045382691391231,0.0057391932688167,0.0015674414240264,-0.0014428897782394,-0.0049294043866545,-0.0039729922887361,-0.0017669048477169,-0.0014824901794667,-0.0012372676752974,-0.0007819115878328,1.7671021573506545e-05,0.0034916776144123,0.0065310183639266,0.0054040144277985,0.0016155547389139,-0.0025815592693957,-0.0031929496115343,-0.0074563432362611,-0.0081129717313703,-0.0043148762163016,0.002629484381105,0.0071228975893015,0.010628147449283,0.0084271971231992,0.0033612855469707,-0.0042600595237722,-0.0101426588095571,-0.0131585923480201,-0.007219168131745,0.0008624239604151,0.0069270279869708,0.013778347133836,0.0132216384134384,0.0028107813551111,-0.0122446240585629,-0.0151183207783456,-0.0036688966950012,0.0024295699994449,0.0044121809828443,0.0031093436217945,0.0035133382491506,0.0072568460221436,-0.003482092348404,-0.007225381871963,-0.0052085207854663,-0.0031319186311369,0.0096012067305528,0.0055268757191578,0.0014295104870206,-0.0041333319280425,-0.0038264090618058,-0.0050542222512892,-0.0030716368010153,0.0039361823456468,0.0038025911039549,0.0075682241969538,0.0039902227626269,0.0011902854302517,-0.0059262923245493,-0.0174324890472335,-0.0027286128437437,0.0049829023542737,0.0039530097704435,0.0089428275056516,0.0052950730361761,0.0015913822229343,0.0020911862807197,-0.0031399033381023,-0.0109786415046232,-0.0116192578483829,-0.0069847084725591,0.001309898329094,0.0154737609170565,0.0182381281822825,0.0080614244731605,-0.0049378503959996,-0.0156229815350497,-0.0102704511816755,-1.0538741994957977e-05,0.0030883022861686,0.0002886453561915,-0.009766846282049,-0.0103292436344494,0.0344385063062919,0.02757966827267,-0.0046400053362409,-0.0441879320377151,-0.0248481032428795,0.0304165425049735,0.0308762900887649,-0.0013301043551366,-0.0476055324735193,-0.0126124839964312,0.0236237828483946,0.0267305692759395,0.001547115360498,-0.0022882189454581,0.0153277279100017,-0.0023257869028783,-0.0329389499192794,-0.037397605179454,0.0048456498058798,0.0084515776138305,0.0416624227121476,0.0343485690348287,0.0060681491431895,-0.0284579840659578,-0.0461912530257263,-0.0240148855436602,0.0238255260000638,0.028715395653939,0.0141474857493226,0.0001378577915324,-0.0124910442190961,-0.0142239904808669,-0.0063759266303014,0.0059804256817215,0.0071068129658711,0.0073438058208793,0.0062608419965032,-0.0018545559819773,-0.0102291283124527,-0.0071314254080906,-0.0028054444010519,-0.0055556551806503,0.007994324250047,0.0105714853617814,0.0052037958310864,0.0030438877841263,-0.0034822122653891,-0.005331098443824,-0.004453901875886,-0.004922405958384,-0.0044844316459976,0.0037515445449195,0.00396832248274,-0.0036410207580656,0.0056829210180994,0.0133638513404099,0.010714918121449,-0.0059598530545405,-0.0183711225273726,-0.0190658133900766,-0.0026862874398598,0.0059377758012248,0.0092803819052486,0.0202981412352724,0.0145474206391196,-0.0060408283977115,-0.0185746400622237,-0.0066563329509092,-0.0063554493244465,-0.0093778023521823,0.0027393361800464,0.0163933287198911,0.0147198562456046,0.0062987659553412,-0.0111732941127503,-0.021949669135715,-0.0010320015489674,0.0132937618401603,0.0077965649455577,0.0038011239116166,0.0006115768454494,-0.0072871249214584,-0.0143098368637625,-0.0194955237816834,-0.0003522404123769,0.0251222559755788,0.0258357540669395,0.0195719748206072,0.0006184982270501,-0.0287416345840392,-0.0420485497088078,-0.0122703844871278,0.0106747345157387,0.0101002444035036,0.0259076535632743,0.0258963037269472,0.0138870470972845,-0.0172996796053784,-0.0379256848718676,-0.014785365453543,0.0073104264722657,0.0063673635273839,0.0093060335287858,0.0019781994546628,0.0006944195641946,-0.003090829681158,0.0158771677814317,0.0126818900408708,-0.0088569792161882,-0.025885279282428,-0.0067305076938777,-0.0025558088686709,-0.0134989300606314,0.023839976799121,0.0403890506636968,-8.673275617560292e-05,-0.0232472954552213,-0.0134006119504531,-0.0055215741292735,-0.0021787420611854,-0.0057465919364802,0.0034447991848521,0.0192742506100401,0.0043832534617315,0.0157741780674343,0.0024669168356877,-0.0344411819753295,-0.0181764183299442,0.0084519983707416,0.00663382394628,0.00345491149948,0.0138382107017849,0.0091599574407173,-0.0054835733830298,-0.0049990993304912,0.0010787757283156,-0.0141126470934619,-0.0043312492270966,0.0019920260094182,0.0014109270660629,0.0037034727201497,-0.0018019762681037,0.0143338476405259,0.0080313114409514,-0.0068145768761059,-0.0016796003078294,0.0012747145404664,-0.0084621656457263,-0.0248239612390726,-0.0100270147761042,0.0183895581219988,0.0263772960843965,0.0157830977048469,-0.0032423511320771,-0.0152934407191508,-0.0077845600306411,0.0001163071552714,-0.0144257261208203,-0.0069221403882041,0.0094813774508836,0.0094183052775534,0.0085937933329518,0.0137068390254713,-0.0045411960469201,-0.0265962762183731,0.003399052889061,0.0136046670232431,0.001466804151478,-0.0087720021555777,-0.0037567891323815,-0.006989118774852,0.0021220195076515,0.0048676903137926,0.0092850667880748,0.0124479300639261,0.0050948963304506,-0.0160072848355866,-0.0226172945684206,-0.005562201679483,0.0222953337867403,0.0131853581773866,-0.0066405644949169,-0.0078747725953037,-0.0050221063421254,-0.0034792765135391,0.0053699551562751,0.005336224658111,0.0121102959108985,0.0061395212840922,-0.0055312888394657,-0.0167621922531331,-0.019809546255633,0.0003686179622213,0.0105325926729009,0.016008236463306,0.0144538620295673,0.0025841193902618,-0.0086496895050106,-0.0126684259910864,-0.0098327560011239,-0.0076167443040515,0.0039123330586583,0.0145741386779177,0.0139959001734178,0.0004343046353713,-0.0172992750875945,-0.0096480663932819,0.011512851234865,0.0032084820582974,-0.0007956215766534,0.0020076629783279,-0.0004325423737255,-0.0069751206987277,-0.0088030696541736,0.0025678659779854,0.0165262690942913,0.0078550418707863,-0.007366594806589,-0.0020432912687728,-0.0099432742494295,-0.0152999063273764,0.004003515206325,0.0191440096277442,0.0164643126672088,-0.0006656530701145,-0.0160730348851121,-0.0151347802636764,-0.0057209637483248,0.0098765481548675,0.0166102492053105,0.0040912512700534,-0.0079107027811019,-0.0076345722489353,-0.0109322229377036,0.0074844002606188,0.0150595733751863,0.0106582702217087,-0.0042970677250529,-0.0270225302905293,-0.0171817480697801,0.014540918256443,0.0126152239966594,0.0144321408305277,0.0090050928737663,-0.0018357373924237,-0.0103585958251978,-0.013912905227883,-0.0169590186761919,-0.0075713657829338,0.0106096746514512,0.020394285694287,0.0207008273069217,0.0059790155241438,-0.0087653612722628,-0.0116745837846849,-0.0164158376128595,-0.0228456331742587,-0.0043407980041519,0.0280554328393557,0.0231425058377404,0.0075051094165892,-0.0020952660876259,-0.0116289223458634,-0.0060879215138315,-0.0103003760464826,-0.0273561128351432,0.0039874400346953,0.031170999638634,0.0265993778068397,0.0080794612250659,-0.0136821910134176,-0.0343924601137778,-0.0237266780517458,0.0168773480596297,0.0163560546960594,0.0077720081149417,0.0062091556751292,0.0066559541289659,0.0015703581465352,-0.008828139091157,-0.0229751299256747,-0.0254204956905273,0.0211962655957021,0.0260516739131673,0.002128409406186,0.003440926446858,-0.0040024925663286,-0.0095651570088265,-0.0110261748526869,0.0011098357996573,0.0065293011516175,0.0029518411869192,0.0017202808916862,0.0028267391869865,-0.0020500852152402,-0.0080987386955598,-0.0003497418732329,0.0035323111518797,-0.0013861460873356,-0.0009385105781811,0.0058144621432454,0.0151972221885172,0.0029655160018864,-0.0184514954292668,-0.0219312968692945,-0.0043840011318534,0.0140959302191311,0.0184615412271493,0.0094899005391597,-0.0017243686309056,-0.0126433083718096,-0.0203382825474448,0.0031026548573748,0.0219408125584117,0.0154690566013152,-0.0046719439634802,-0.0263837555975488,-0.0314124469699312,0.0157524076100697,0.0265082038294703,0.0197121136939166,0.0066278683534802,-0.0162444086698672,-0.0196929668260583,-0.0201892131567678,0.0084735683554567,0.0249782768203624,0.016928122048857,-0.0007699769987782,-0.0257369174369919,-0.03212458727075,0.0019938128794967,0.0327741410441567,0.0248364922699556,0.0098971579413586,-0.013235954591197,-0.0320071569968544,-0.0136695706370545,0.0145953302509471,0.017675138701009,-0.004403144809174,-0.0130372058931645,-0.0104590398113214,0.0180737319103813,0.0219193741468275,-0.0005850527425161,-0.0114840888771756,-0.011993525812655,0.0045142611050147,-0.0030803644633609,-0.0041151957161825,-7.5717241060141e-05,0.0014863015082321,-0.0045034419517637,0.0003066013176065,0.0139133899924241,0.0107689390716503,0.0024770566966885,0.0060641917522188,-0.009512823467099,-0.0249001734185582,-0.0143832184517355,-0.0113239328637311,0.006891408734068,0.0304939645750292,0.0312815559196634,0.0095445096780779,-0.0170951645354453,-0.0183612309651734,-0.0230473572623025,-0.0116614550480271,0.0059117605205893,0.0134307883947035,0.0125605998563045,0.0059203819583737,-0.0094743150117107,0.0092911380074377,0.0176186457776545,-0.0001026329772105,-0.0312087987514914,-0.0212870283081241,-0.0057526547380792,0.0079633409928753,0.0228420589551722,0.019123679928906,0.0082117571809389,-0.0049992224529526,-0.0162110670948051,-0.0118381692020155,-0.0060062499930196,-0.0012556855671521,0.0006082544654487,0.0055427064643674,0.0076676715091751,0.0126931985235858,0.0093451785094234,-0.0036074673072753,-0.0205170155488285,-0.0164795054439411,-0.0093219419932336,0.0174371320657549,0.0219557729332844,0.0134764881971895,-0.0044200539991799,-0.0239090946801575,-0.0105292735185054,-0.011383888788381,0.0130798170818587,0.0194985952134016,0.0140657225588688,-0.0020969820652419,-0.0164002697472998,-0.0196813451559297,0.0008630237413514,0.0150844372933977,0.0085219420454496,-0.0009178565782222
-0.0015258794791835,-0.0089104709421646,-0.0100551406056677,-0.0101303975088582,-0.0037850828505324,0.0024920273524442,0.0063328170905511,0.0055232825045988,0.0063778207594124,0.0050062048985037,0.0007599191951372,-0.0018569056748932,-0.006661631755688,-0.0089576861178753,-0.0049825757589905,-0.0010239273035679,0.0042892077061541,0.0052558216875714,0.0041097666503505,0.0058560402963968,0.00406512864463,-0.0029736418588464,-0.0041058684568344,-0.0056563320785173,-0.0067138704595693,-0.0020184183361395,0.0003930222729945,0.0033839280985189,0.0069514656217559,0.0066048386081801,0.0013849870649548,0.0001167003885863,-0.0039945929331526,-0.0054406397381496,-0.0072142061442853,-0.0027680107539075,0.0029061791284725,0.0066035811926606,0.0035269622801885,0.0032652129281177,0.0002383468738835,-0.0024948464689771,-0.0020808525116667,-0.0045296887726537,-0.0028954071477922,0.0005893323333333,0.0036404286606213,0.0042423070562365,0.0016083654893216,-0.0009442503327524,-0.0016352822722455,-0.0010397834361153,-0.0026251459835706,-0.0043472026559496,-0.0004168593494379,0.0045799113235232,0.0068532700644976,0.0036537243065922,-0.0011892960694434,-0.0030391307696967,-0.0046791527764037,-0.00541224056621,-0.0038940160280033,0.0005124452516613,0.0059221089541395,0.0063264024234664,0.004327883594991,0.0033467661626945,-0.0023407669341722,-0.0041737877240797,-0.0062847857839587,-0.0061263692296958,-0.0021601509727568,0.0020885909170312,0.0054583582047636,0.0044638676488887,0.0035193254078508,0.0051213302905853,0.000397149314263,-0.004134391393602,-0.0065803520486233,-0.0078512386013651,-0.0053190575482564,-6.962572306485982e-05,0.0074088593968604,0.0110830891977199,0.0099076323512429,0.0043636422957685,-0.0105190023545629,-0.0195726031544273,-0.0004502216646332,-0.0008888264003364,0.0048110630725137,0.0078581339279211,0.0035053589901513,0.0057279057833679,-7.619382205287055e-05,0.0003347456431125,-0.0088263514961421,-0.0094363811180766,-0.006782226990872,0.0018881371501209,0.0081905338942262,0.0085782391970735,0.0067115398121928,0.0041592273739896,-0.002599888983696,-0.0096307525553984,-0.0096095248592582,-0.0054149066353457,0.0007628661076429,0.0056867026313774,0.0074512809211656,0.0079820516443439,0.0009787140748788,-0.0048499549683942,-0.0064869699701634,-0.0062699790946876,0.0003920632585187,0.0091022325278274,0.0063056631610371,-0.0013984057989166,-0.0055018608895994,-0.0082066877317509,-0.0057975206663576,0.0021148085723123,0.0081727536411458,0.0079783425727137,0.005518740894664,0.0015644209580212,-0.0016603555812935,-0.0089102622761328,-0.0106852627087525,-0.0057999758236705,0.0028630755207365,0.0036107522461959,0.0058956812067556,0.0021507440113533,0.0061285525903949,0.009314148060779,0.0019396078519027,-0.0061719236837519,-0.0114551950809654,-0.0162781716100349,-0.0093119625667622,0.0084017364630266,0.0136167511566619,0.0098113602608549,0.0075543468960856,-0.001266824171907,0.0011891138804663,0.0027041099527072,-0.0063020711111578,-0.0196213326619972,-0.0304352076476367,-0.0005442712633925,0.029723563135302,0.0322446837559543,0.0216545532854988,-0.0043478304162952,-0.0364747565359964,-0.0221605440305675,-0.0034826961911056,0.0040064498059955,0.0071551241269712,0.0092769469524077,0.0091615642826244,0.005137904697768,0.0155559822812296,-0.0022830423537008,-0.0321317074361773,-0.0028585628335986,-0.0102965739421981,-0.0028874386574602,0.0129235299753796,0.011569535909981,0.0108191039646884,0.007429575911206,0.0016425897748436,-0.0076810756718399,-0.00780737502355,-0.0119946694885841,-0.0209185049177248,-0.0142217486452416,0.0233328341711267,0.0279707964244261,0.0207485334568702,0.002610729718753,-0.0062277693481561,-0.0147659321007745,-0.0278775303596965,-0.0367538927268272,0.0201949155001881,0.0326062298443848,0.0211936270020582,0.0026973463218573,-0.006212112395981,-0.0105338416513446,-0.0130896552345066,-0.0086251322889659,0.002678388065476,0.0049242295368841,0.0064195389900953,0.0038646822049775,0.0059130171422869,5.9073203165625194e-05,-0.0054656876427651,-0.005074719374988,-0.0057672135614238,-0.0045310295544191,0.0015259356242181,0.0098709378666704,0.0056531689026187,0.0064465963750577,0.0018832728904903,-0.0064705234022101,-0.0094681976503456,-0.0104029077778541,-0.0049530818435962,0.0013691413707895,0.011454339437919,0.0157109841161305,0.0084076648478571,-0.0033384790124,-0.0077831125377951,-0.0135214519202081,-0.0056181127517469,-0.0019549941412447,0.0006412602011427,0.0027205884518884,0.0100066107924176,0.0119389359443667,0.0033316431014114,-0.0034697541687882,-0.0079060673256382,-0.013532059106253,-0.007069795284571,0.0026840079592229,0.0128873388668007,0.007158111669368,0.0005791264966511,-0.0028745686280047,-0.0087837039435832,0.003866109656933,0.0097981582232687,-0.0017082479623285,-0.0132552975722607,-0.0117678459807623,0.0045692599571246,0.0132956277912607,0.0138213349327963,-0.0010453888425319,-0.007323222960283,-0.0064197313604752,-0.0068315520972361,-0.0035358144174419,0.0074880487580848,0.0066059473858367,0.0001224968693098,-0.0128734546543984,0.0083524511658487,0.0103679327428235,0.0017010808790651,-0.0033113527584234,-0.0084239735558585,-0.0095804432781566,-0.0017353230687286,0.0052565010100496,0.0116955218347005,0.0003823424813376,-0.0033899268190679,-0.0010823025545541,9.77641834615098e-05,0.0007981959850554,0.00407964664967,-0.001341426298638,-0.0003305003347046,-0.0085710524648283,-0.0214766550573527,0.0088416508521539,0.0262714922278179,0.0161979077876603,-0.0056038473664519,-0.0206139351348614,-0.0111078795537472,0.0011326737913798,0.0072069773445682,-0.0025184189062731,0.003182836650798,0.0117154782083913,0.0033789837410682,-0.0031369076432644,-0.0060329102822015,-0.0144558087020121,-0.0106862611819935,0.0148184930518996,0.016655459350119,0.0059808217925034,-0.0042270054554622,-0.0063156978707114,-0.0048486015929518,-0.0096739128360384,-0.006210208007159,0.0049679626303477,0.011233557192299,0.0113059972059306,0.0053532781729555,-0.0060098553317569,-0.0187220084219436,-0.0016948864680977,0.0007087310574483,0.0079117123937114,0.0081109414881086,0.0010156799180879,-0.0069565126875476,-0.0150532036026844,0.0035817905827578,0.0147089470892252,0.0081277589577524,-0.0019242141023443,-0.0072114805757724,-0.0077391473489965,-0.0043276225226597,-0.0035200122344901,0.0077557105872125,0.0089044895848277,0.0040018280108484,-0.0039476010371016,-0.0015548447719995,-0.0015250016609134,-0.0019289865329405,-0.004399643310301,5.941396247161502e-05,0.0024829845090243,0.0009198080609697,0.0035758645139035,8.527318781532007e-05,-0.0013329146637937,0.0009439259269212,0.0040508853436157,-0.0033060353488402,-0.0061661082585109,-0.0047076638984762,0.0035220979207021,0.004428920941174,0.002655624836337,0.0021732750289771,-0.0016902596654164,-0.0017801697657063,-0.0042375153122432,0.0013337962125812,0.0056789538239298,0.0029901718877415,-0.00410557319211,-0.0076815800797231,-0.0078041896748659,-0.0006841103610484,0.0101045485719239,0.0128485356788386,0.0077991074443943,-0.003025179137931,-0.0068219561856743,-0.0098260037875803,-0.0102016450665549,-0.0030727536918871,-0.0001115999906711,0.0080015762222815,0.0116366818398763,0.0099713348706378,0.0041128148228808,-0.0040567910926422,-0.0077514801938246,-0.008871917877202,-0.0084113760102444,-0.0054801782375867,0.0028750223267183,0.0063473813058284,0.0075639644998673,0.0071305541429116,0.0054354798960368,0.0024037847484201,-0.0022326163708745,-0.0083026744331555,-0.0097571190872424,-0.0094435916075708,-0.0005003020646544,0.0009303041987888,0.0055842861662531,0.0102754741514589,0.0093425189398687,0.0081403560194773,-0.00010732928105,-0.0077824603569231,-0.0135168776213634,-0.0120443183537713,-0.0051571893007157,0.0023776826399589,0.0067907424995639,0.0121849071240391,0.0121877153806968,0.0034814244701751,-0.0034986922897066,-0.0076488478188897,-0.0093517732970441,-0.0062348057797041,-0.0032316501151985,0.0014943672901345,0.0054317967732915,0.0079244296862607,0.0052210901052486,-0.0007767379598166,-0.0034832274738252,0.0005436121705525,-0.0030457989388362,-0.0031378571186666,-0.0006656395472758,0.0008145092279284,-0.0019090361031523,0.0004816441197086,0.0033861871242999,0.002973927644545,0.0004085008226206,-0.0006426921845881,-0.002292956119931,-0.002288154830676,0.0009337471332284,0.0014823156103411,0.0008267176821205,-0.0013930483183524,-0.0023127790063131,-0.0006634090638601,0.0047547170862233,0.0024690689915318,-0.0008228296342864,-0.0039266644081171,-0.0055692284546047,0.0010502185779212,0.004302255491122,4.685865842140625e-05,0.0057939626547209,0.0046262190519816,-0.0013497620826784,-0.0075918264867858,-0.0091269927896683,-0.0052201922390979,0.0051713546324243,0.0079252548300475,0.0050003619712682,0.0026833233430667,0.0021174382978753,-0.0019635409854274,-0.0045024544828385,-0.0073085693575229,-0.0025524740039006,-0.0002555798860496,0.0013288213329512,0.0012201314565826,0.0038251728560241,0.0070946737239916,0.0049021630927868,-0.0014281010958296,-0.0063265709784706,-0.004746998902801,-0.0040441932379195,-0.002282633553332,-0.0001316650850189,0.001687151671332,0.0025614580204835,0.0070444447955973,0.0077475923706553,0.0027527885736385,-0.0048420362109609,-0.0087969805022468,-0.0103328426464118,-0.003569335741212,0.000889919480866,0.0083663309034906,0.0109309118243975,0.0059287334369122,-0.0025306663630674,-0.0029721294524123,-0.009205620775249,-0.0052893333125869,-0.0009072646924464,0.0018166864641347,0.0057574494356952,0.0049739010162581,0.0032837637983426,-0.0015347779284137,-0.0070087689364253,-0.0039188949961871,0.0042713801171173,0.0013757114788853,-0.0005642284916461,-0.001730857999147,-0.0019708037656883,0.0033502791998081,0.0039159557162859,0.0004565334418629,-0.002222194468656,8.839429594550177e-05,-0.0021833016380359,-0.0037484631330375,-0.0007931120070793,0.0013724790809273,0.00070039221846,0.0043333188167084,0.0049617936716562,0.0019284170234992,-0.0038862028892656,-0.005592601731156,-0.0060520369939463,-0.0017947998882718,0.0015768622394659,0.0072673747938017,0.0064484879534016,0.0033703297355733,,,
0.0109300389943837,0.0085732996747791,0.0077438291269857,0.0012440673263538,-0.0035389512477563,-0.0078157250520339,-0.0071998186101335,-0.0055213057028331,0.0006432933170383,0.0030808667902893,0.0043732311279847,0.0047936794862735,0.0025842464103427,0.0004857574588244,-0.0013442242246013,-0.0003460744178293,-0.0034506522105793,-0.003132193182556,-0.0015718045986837,-0.001278507478113,-0.0005010529357457,0.0025309872684713,0.0045243119745787,0.0026094419489093,0.0016774027711833,0.0024769866656035,-0.0035258436701082,-0.0054418838748748,-0.005316772408367,-0.0008333922523597,0.0019156963380335,0.003561205605175,0.0024268913540034,0.003087966542426,0.001338095041188,-0.0008457292858029,-0.00396386643185,-0.0020899375351101,-0.0004775611504972,-0.0004370288577845,0.0014262444736231,0.0015982868630059,0.0001350055375221,0.000508198455746,-0.0010310780686598,-0.0011778095530041,4.734532732771316e-05,-0.0005599736998071,0.0011354327635836,0.0021632730797684,0.0026637245559868,0.0007702536785834,-0.0030965428024588,-0.0037099047512314,-0.0037859257998747,-0.0010837488375042,0.0014425315866655,0.0033638960069736,0.0043202177309841,0.0039969442032054,0.0021071968108043,-0.0015197388797082,-0.0067099517267557,-0.0078031601746829,-0.0011178346702515,0.0048054192807964,0.0027085114339933,-0.0011231503089576,0.001397263434251,0.0073708584663528,0.002616954991098,-0.001524224529513,-0.0082935861138802,-0.0069032737151986,-0.0048599648757775,0.0036156333046115,0.00922823227724,0.0075772981588354,0.0028030768306715,0.0001732667629038,-0.006048712560044,-0.0116906335444986,-0.0135844918480795,0.0030885283102675,0.0133127474128191,0.0159754535454515,0.0110843659293799,-0.0013782744739528,-0.0233458733806082,-0.020377191990001,0.0039229937591215,0.0112717750588778,0.0096086003299557,0.0042051026065055,0.0021281507311503,-0.0026218967711931,-0.0049800289887452,-0.0025861054405268,-0.0009858597447917,-0.0033345239962335,-0.0006132797107915,0.0025716330611904,-0.0035009800620479,0.0069020972305028,0.0086383563350574,0.0074467520829554,0.0008366213360693,-0.0111938331684483,-0.0244677648054699,-0.0179753348494566,0.0155543817363419,0.0257542318743927,0.0189110742285405,0.0043075373221036,-0.0029593365536355,-0.0142604316003999,-0.0352102019055609,-0.0121705647351069,0.0162058608626248,0.0213477585920093,0.0090708976086278,0.0020545655855016,0.0030419305394352,-0.0016880821966825,-0.0056120159535252,-0.0070925681459508,-0.0136373460805403,-0.011308218842394,0.0084263390618901,0.0162741420096232,0.0113213739052455,-0.0014614713647715,-0.0011494592381254,-0.0010164711391424,-0.0020421539310787,-0.0046419181505624,-0.0116237999836026,-0.006005876676631,0.0027499921581837,0.0058267926869944,0.0115152967464048,0.0128468257693442,0.0021599838600185,-0.0045012828337687,-0.0107780910048003,-0.0170850648178703,-0.0107553078696757,0.0048783454569866,0.0146340559927854,0.0141319096115241,0.0101064964339176,-0.0017462098814496,-0.0105940544319228,-0.0068257529047494,-0.0087961422102452,-0.0072934708427558,0.001754124590855,0.0065987416766562,0.0110234525367624,0.0033396809349837,0.0008901030779151,0.0033616889664893,0.0021992832929051,-0.0055877505241195,-0.013609189310909,-0.0097486532862393,-0.0121928128770285,0.0117094432345764,0.0192449645130091,0.0124853176492823,0.0064643516115692,-0.0026112826027665,-0.010448825114166,-0.0105336540303534,-0.0120787176596325,-0.0134012976601444,0.0056106620202636,0.0137587197485938,0.0140456843458091,0.0081396625265425,0.008550658030166,0.0019990218781285,-0.0146749909900305,-0.0235013283970935,-0.0116830823396403,0.0033847502839027,0.0086907214599248,0.0076486800569868,0.0067186310658972,0.0164083827738067,0.0070846867917595,-0.0044297241884078,-0.0125108203797595,-0.0178101383314826,-0.0126217110194954,-0.0091843847165223,0.0104627953214421,0.01958085516252,0.0218826766199068,0.0067980741944069,-0.0048603071547652,-0.014434046808482,-0.0139404480512784,-0.0077227338532695,-0.0078437026748874,0.0019686124003996,0.0110848794543454,0.0106109019645272,0.0137366957924472,0.0072808250448082,-0.0001743828504622,-0.0139989382955284,-0.0275711557222879,-0.0159732163316665,0.0151459571039792,0.0214298558088672,0.0065184546295462,0.0098991407167948,0.0006955057770011,-0.0129382404769378,-0.0078414423980936,-0.0106371900375445,-0.0146067974355018,0.01022025697681,0.0230094418647424,0.0163604535930874,-0.0096946333907473,-0.0033057603566028,-0.005817487973304,-0.015578930531962,-0.0057199210913667,0.000141331369436,0.0147090720757428,0.0112587038138451,0.0028430063066062,0.0062350757547701,-0.0073684812412742,-0.0214742530158831,-0.0003811008076769,0.0022923769499659,-6.75585103733101e-05,0.0029525512751037,0.0136752419570782,0.0012427170817967,0.0026579960163627,0.0046345627594726,-0.0039681361022671,-0.0336249814956294,-0.0046474614402023,0.0116127191129878,0.0118825698739959,0.0036040225469929,0.0162140756302709,0.0119568206222625,-0.0052986350626478,-0.0193866642661147,-0.0369076994848044,0.0037663326232549,0.02010224511197,0.0043649435930972,0.0023563322901746,0.00634871390205,0.0155477755705332,0.0062597659015124,-0.0057327105044882,-0.0184339491726388,-0.0199815980548598,-0.0043704085219815,-0.0120025879804365,0.0082342980449788,0.0325946872371635,0.0215137843723572,0.0012018294465161,-0.003671204649606,-0.0068856466100374,-0.0208260457711435,-0.0243311061632434,-0.0075053113147017,0.0024920681518981,0.0182302710475597,0.0198263985435525,0.0172236273353965,0.0108814133231228,-0.001682587850484,-0.0197845320643524,-0.0205381940183675,-0.0191347221709708,-0.0146940281622607,0.011007461313274,0.0228616405530519,0.0155099676540964,0.0155259372743212,0.01441084681023,-0.006669922110572,-0.0185693507037306,-0.0309993370684492,-0.0101533799741531,-0.0014868128196542,0.0038992095702315,0.0162313104150143,0.0206930688662521,0.0131388357535889,0.0027922673197087,-0.0052661198366903,-0.0147674267382711,-0.0104853190500611,-0.0091230983453707,-0.0140113129728738,-0.0034241942306121,0.0158513059307499,0.0236297885585704,0.0139355181556834,-0.0036137668812735,-0.012915848206318,0.0001537712184219,-0.0029251645153729,-0.0042257018083196,-0.0029555420927222,-0.0116601582420892,-0.0123741098834981,0.0002821581192961,0.0199115146554148,0.0287677081705457,0.019810414360654,-0.0064803215560421,-0.0293132461820291,-0.0221576523164923,-0.0117453471352973,0.0059702442654088,0.0106171775742762,0.007061424607922,0.0069692676394713,0.0088508517821207,0.0056867670264029,0.0012861405778821,-0.0082215479815886,-0.0127424325822558,-0.0097991038492905,-0.0041468204086053,0.0047540413477419,0.007458258712168,0.0057423866535958,0.0030932484077814,0.0006811671884318,-0.0017696464960562,0.0021100720931717,0.0026486552267287,-0.0003232904169256,-0.0066458582632318,-0.0059151705471939,-0.0060683139087191,-0.0104507407692394,0.003718428055782,0.0201740902997873,0.012155320873941,0.0045106632933758,-0.0009578399213028,-0.0080347561717623,-0.0122302636566128,-0.0167824189835016,-0.0054496239123237,0.0092672230498959,0.0154786223332991,0.0105086284807321,0.0036371186271535,-0.003520235105307,-0.0114070503575987,-0.0053560854836298,0.0051134455878593,0.0025268195888727,-0.0049232058222627,-0.0057649039621125,0.0029640069579051,0.004729443469983,0.0056942042214323,0.0008563136230908,-0.0048202823905687,-0.0041486837320364,0.0011410740965238,0.0049000677765892,0.0023204213633915,-0.0017380476379071,-0.0021966543134663,-0.0025379975776656,-0.0040762829053447,-0.0051864433646163,0.0006147501835306,0.0078519260892218,0.010612984740593,0.00589462858984,-0.0027272223594999,-0.006632492126091,-0.0073161103153833,-0.0030086755390575,-0.0050418314949932,-0.0027542118154498,0.0019885862446472,0.0081725822593175,0.0095653237753926,0.0106442819074237,0.001111951258542,-0.0078898606854173,-0.0135078308412222,-0.0074637679565739,-0.0046533788203097,-3.745731478656675e-05,0.0074474759240425,0.0103723595703649,0.0068717116757692,0.0007083997156278,-0.0004855877873203,-0.0025799451357394,-0.0038554020974562,-0.0056493051872706,-0.0051513677323882,-0.0030748215404784,-0.0005533734248217,0.003938726906461,0.0045917236784987,0.0079377795309678,0.0064232880426936,0.0025578394063654,-0.0028511130371528,-0.005678654834156,-0.0088108638991655,-0.0079792798351204,-0.0052333793605322,-0.0018716046230809,0.0041415307688619,0.014504441330399,0.0150621270400811,0.0082677217164364,-0.0011480570478461,-0.0099915235256452,-0.0149260886952276,-0.0146955192891516,-0.0079951479014749,-0.0002080993382817,0.0125454818206251,0.015704749113847,0.0138138592806743,0.0057612073935405,-0.0007370922677243,-0.0073809931620465,-0.0143720093582606,-0.0134906125035428,-0.0105132045373643,-0.0001422209018459,0.009773015492581,0.013719436111721,0.0117125537418519,0.0085171635001672,0.0035742296721041,-0.0063055160549473,-0.0147256489992954,-0.014520861041541,-0.0106917530562269,0.0013749361186027,0.0082651056635006,0.0137554658691432,0.0112980465071791,0.0065642919555868,-0.0004820497616081,-0.0068870779718947,-0.012974437774111,-0.008579982481294,-0.0045641719249359,-0.000327348405204,0.0048805134427816,0.0126877141735253,0.0111445808912651,0.0038276879843499,-0.0059107256018089,-0.0121550588574935,-0.0045716267913646,-0.0046507321049986,-0.0006088980326532,0.0064004129896917,0.007819682366568,0.0050361322861933,-0.0022300055469949,-0.0061495740465318,-0.0053354252638465,0.0018923226485816,0.0042654266619985,0.0040402131355553,-0.0004982594426347,-0.0064411365628473,-0.0046638510417093,0.0029164195300261,0.0037362627002749,0.0015261230001474,-0.0007560629586012,0.000506005912519,0.0016261189859628,-0.0011353653341731,-0.0030108000811238,0.0014062416940105,0.0011375166864936,-0.0009806567254236,-0.0055704750449128,-0.0012960096790041,0.0039184944180028,0.0056670105173632,0.0026244060139306,0.0011336494167685,-0.0026744239184981,-0.0062806418341551,-0.0035188685252792,-0.001228437253919,0.0039409806622002,0.0059829349855945,0.0029002635754258,-0.0038996474615456,-0.0027777342789759,-0.0013910022923781,,,,
0.0084879905876244,0.0113210188957114,0.0120357148087763,0.0079183134725047,0.0003723674849797,-0.0081829913078545,-0.0127311105788,-0.009206609548472,-0.0043392818646099,-0.0014944848146065,0.0049876504792077,0.0087152613663561,0.0086796810029302,0.0044657376353275,0.003752923678882,-0.0025642172448594,-0.0038042203834559,-0.0089454587523855,-0.0076877150996717,-0.0050050829733812,-0.0016895549694601,0.0033969183463488,0.0087077326061647,0.0107916951269409,0.0074091759819995,0.0042741936263305,-0.0040614419535466,-0.0105603469951978,-0.0134710531369444,-0.0096057882281684,-0.0018048910186155,0.0054570655479973,0.0119743096850571,0.0103021346754104,0.0090284664524405,0.0041209340591407,-0.0042181203039022,-0.0125404613852432,-0.0110655983444115,-0.0090790789953189,-0.0038868365077503,0.0033795542364711,0.0091831963579182,0.0138786031669482,0.0128911700098478,0.0037024691333571,-0.0054217270819797,-0.01379927785647,-0.0148804395849803,-0.0088224795869713,-4.851223743261038e-05,0.0083643245053493,0.0131383252133848,0.010340073754262,0.0054975010965632,-0.0012952876016509,-0.0088054439331411,-0.011895957286729,-0.0097860785078418,-0.0013295336851817,0.005726093902077,0.0109767459327942,0.0100592375323371,0.0029491006876572,-0.0038614524294305,-0.0079074366678932,-0.0069237851759058,-0.0073987583522894,-0.0010303544552695,0.007257031096523,0.0075265870969313,0.0085572307170252,0.0041586393276228,-0.0026187044591718,-0.0085370205623672,-0.0092528793064568,-0.0075293804988333,-0.0007767988770463,0.0054371332356871,0.0106071553752893,0.0062052491517245,0.0052278324293335,0.0003908493166551,-0.0054481088940802,-0.0104263102518427,-0.0068274782504388,-0.003213698927097,0.0005745220120317,0.0051208476319571,0.0093337718820549,0.0081983348509241,0.0023613500397969,-0.0023538551014859,-0.0076576203494135,-0.0078323727800562,-0.0044267479006936,-0.0012938386782108,0.0020433843835113,0.0048981113729075,0.0076971365452096,0.0044779051914794,0.0037054010181929,-0.0001388862564382,-0.0069788499088648,-0.015974821577915,-0.0152648964671181,0.0153667054748586,0.0144365312773788,0.0050914730468803,0.0009263660958286,-0.0023198534273395,-0.0007950831310463,-0.0027130755445903,-0.0057824840243351,-0.0063246953392487,-0.0056187271273345,-0.0015085739614843,0.0072170969013028,0.0144111660433046,0.0100939771188378,0.0055931760970175,-0.005716137871939,-0.0157934454574143,-0.012960275280731,-0.0073369375603113,0.0002951749553716,0.0081233998096365,0.0101216615022045,0.0120832267056273,0.0106092826196261,-0.0028502114643018,-0.0049953354444704,-0.0127546863756965,-0.0159790140142906,-0.0093441501773548,0.0067239579840599,0.0128007805902172,0.014526429382184,0.0045943153146599,-0.0084392035555949,-0.0026339465913376,0.005437152544376,-0.0016242946586674,-0.004041051235739,-0.0153498340252765,-0.0080088873446764,0.0096223287118048,0.0127747898130903,0.0085940013353421,0.0017419660274831,-0.0061132596223552,-0.0102014025984731,-0.0004206684468843,0.0065897817425161,0.0012840986428529,-0.0045498273215171,0.0004170304893719,-0.0034537563671716,-0.0060634044623854,0.0083950568972378,0.0067526754008928,-0.0002692606411714,-0.0002628980943602,0.0016516695574485,-0.0025186278661397,-0.0044028618555199,-0.0104769694259127,-7.174743493210353e-05,0.0095630788565476,0.012007654561367,0.0056729403918585,-0.0133228016041612,-0.0125740500953349,-0.000202488002312,0.0030449792291436,0.0077001709131009,0.0081428984860939,0.0029750143879898,-0.0026037829384784,-0.0074483159357766,-0.0121491710010995,-0.003812536579546,0.0088852091887113,0.005044530030275,0.0040107781270469,0.0027079106258518,0.0030309614893672,-0.0021035467361789,-0.0048016863134373,-0.0065123198129382,-0.0040615413198006,0.0027887874594629,-0.0014437900603343,-0.001164649999587,0.0099829348585978,0.0096794559836044,0.0034505204156678,-0.0051791225009359,-0.0104696778398633,-0.0047626013928885,-0.0061771191135645,-0.0097000919564796,0.0096052237970885,0.0195776940500172,0.0141893552737544,0.0011465741401642,-0.0213655025136543,-0.0139859700347495,-0.0021157434582029,0.0060316511838667,0.0040116557295054,0.008420956413375,0.0052255493974274,-0.0041358433145008,-0.0069712664962282,-0.0002342134613787,0.0046829965838968,0.0003817119371908,-0.0118240365711958,-0.0042731289303872,0.0145876540524843,0.0109688161729484,-0.0055930219534774,-0.0048608096603603,0.0001285531670143,-0.0061455061820621,-0.0112517394317525,0.0011524856244148,0.0149093689670604,0.0117009948414891,0.0022704219260226,-0.0046055344800512,-0.0080953958126894,-0.0108675648299654,-0.0098339568369332,0.0078531476887462,0.0096008282040168,0.0045331952108171,0.0120770790266604,-0.0003126077821547,-0.0133721325796854,-0.0205867480471856,0.0116302829033987,0.0105192598387162,-0.0045942133962701,-0.000821751701754,0.0071475718449382,0.0047818124675488,-0.0061175481459692,-0.0122706699499281,-0.0006899151050137,0.0041408195445766,-0.0005106028090436,0.0071609517394084,0.0087228441466338,0.0053687098296996,-0.0069329938161818,-0.0133902328022973,-0.0061195744261644,-0.0005149939538556,0.0022004853052022,0.0059240743022829,0.0042109203928996,0.0041816255234769,-0.0043932099103307,0.0023158304311158,0.014059876257049,0.003999155074784,-0.014303141337778,-0.0209261285537471,-0.0170438215196481,-0.0021969006606984,0.01082116660698,0.0297076586839485,0.0256485893944968,0.0139054878392072,-0.0098215713114448,-0.037168741906524,-0.0369165626058451,-0.0080926184747528,0.0225919751008267,0.0223026384544639,0.0061068381578605,0.0075178699717075,0.0103197801570131,-0.0038933120993582,-0.0163759283769695,-0.00448578652815,-0.0056780084164863,-0.0046503252902324,-0.0045980413643708,-0.0011951578713717,0.0017087828662411,0.0185381696768131,0.0215698886041173,0.0092841646777778,-0.0095801253725011,-0.0314914648128226,-0.0218987643565261,0.0059197188575584,0.0128458257233559,0.0072907715142333,0.0058858502826269,0.004959699673475,0.0078548182444629,-0.0002228638078547,-0.0057596535583464,-0.0136882638138379,-0.013477876285773,0.0077776184975899,0.001545233810675,-0.0033334978083306,0.0080790853010095,0.0146663500226584,0.0078747378348426,-0.004624962365501,-0.0069023866067187,-0.0108881274445144,-0.0162309034715081,0.0056119263687149,0.0069784825329509,-0.002617782252715,0.011465066040666,0.0101578134718992,0.0044037201948906,-0.0021153181367931,-0.0023956419534474,-0.0119898590920146,-0.025515552204026,-0.0011047592543092,0.0135190916314137,0.0127222392400878,0.011008941672472,0.0078379391923059,-0.000282525829823,-0.0038253041639781,-0.0099451892875588,-0.0210905912465746,-0.0018875167379674,0.006143933684654,0.0018442523567835,0.0071035949831487,0.0092845122579545,0.0069448719395385,-0.0014756393678965,-0.0030993767414513,-0.0004539446327499,-0.0030239294238371,-0.0062107614398039,-0.0079198425446322,-0.0080512964284121,-0.0057768938512412,0.0058076115483077,0.0196591223398214,0.0183356170098327,0.0085160244513802,-0.0018607202051189,-0.0137173115775968,-0.0218091273586408,-0.0152573211954124,-0.0054172787916739,0.0042402440401117,0.0115762024137015,0.0175094412763105,0.0177967121725727,0.0102360023978258,-0.0080566530254706,-0.0168533321290714,-0.0154728817492249,-0.0081147108920816,-0.0037041746562973,0.0014196414651276,-0.0003539462005419,0.0099137998045309,0.0189463792165893,0.0159712080150956,0.0064405741321101,-0.0080773741601575,-0.0193804619783236,-0.020740358562002,-0.0152989824111983,-0.0039119342563716,0.0101089183508,0.0231842536477551,0.0210094787982501,0.012653935219748,0.0012176224908498,-0.0095825815703979,-0.0228519486189164,-0.0247275247518562,-0.0125622337534218,0.0049392158316123,0.0140778888275082,0.0209080515257612,0.0167014520050639,0.0117782189864418,0.001293035786193,-0.0125076548667982,-0.0236160235062479,-0.0266053972633138,-0.0107982105239448,0.0089148254959371,0.0210618899353145,0.0228647657322838,0.0175893413613987,0.0033264358271588,-0.0089481189441122,-0.0182864015253536,-0.0220058797232835,-0.0165506562196019,0.0013655859737946,0.0170675748215545,0.0178182397910122,0.0125541679730146,0.0055874756567082,-0.0048849273979696,-0.0086272442522821,-0.0110765700335119,-0.0073414064809898,-0.0038901874456891,-0.0002607895479423,0.006738062999409,0.0069033152677053,0.0053979071662076,0.0031466846305256,0.0011527171900197,-0.0023036946164558,-0.004627826126019,-0.003610960874806,-0.0020600720173223,-0.0029981383649263,-0.0019466444593092,0.0007650351347953,0.0049086216860808,0.0060693814105636,0.0018048447775466,-4.007197014936226e-05,0.0010282433724791,-0.0020286702741871,-0.0039816021557331,-0.0027644916675926,-0.0011367706953998,-0.0017833199703359,-0.0025701870863408,-0.0009686120837572,0.0053874498091349,0.0089629531926679,0.0070924282555053,0.00159587015464,-0.005223045780833,-0.0103794729126585,-0.0078657653594476,-0.0035561609963763,0.000833749862494,0.004895103844127,0.0068540897675758,0.0067130481520452,0.0053477816962005,2.6363010139397495e-05,-0.002792791624099,-0.0051715163691094,-0.0090437383195472,-0.0076593009571758,-0.0035582065873298,0.0038628715808334,0.0087008379928152,0.010070689743184,0.0084064965441765,0.0038000259210979,-0.0037543816393704,-0.0107090303546273,-0.011500392326834,-0.0118950931653454,-0.0031402840907154,0.007387896522785,0.0137270572784656,0.0132139453846114,0.0100721689053165,0.0009560744700749,-0.0085734279982535,-0.0147965191996733,-0.0156543474514464,-0.0090126992193772,0.0024230903247851,0.0097931510643717,0.0167848352838712,0.0170469741951627,0.0094945528666894,-0.0070233311499585,-0.0183198064034414,-0.0186637081050243,-0.011709391534315,-0.002048679414284,0.0108495868244596,0.0173461105205272,0.0168402773928562,0.0097240310049705,-0.0027192981520946,-0.0130390583984498,-0.0195145990570741,-0.0163049281371304,-0.0035770158689726,0.0093493680505644,0.0151903357861777,0.0186152310252598,0.0101482627547062,-0.0021747948622022,-0.0137326381862253,-0.0153258566395718,-0.0096845952718042,-0.004654933104774,0.0035174578141847,0.0101837638590109,0.0119205220950725,0.0097631637146295,0.0002120385210584,,,,
0.0002722678473311,0.000649998504936,1.5689941811426087e-05,-0.0020500439097095,-0.0007612518452856,-0.0025472021587651,0.000952767790165,0.000693827711431,0.001530718028416,0.0001712001251116,0.0025887443935083,0.0031741856007208,-0.0003381877076315,-0.0019113134202728,-0.0048423355299486,-0.0051442214007003,-0.002290326800719,0.0029488929080111,0.0062174241381136,0.0054820431210355,0.0013181932493836,-0.0014423387473254,-0.0013155478064971,-0.0032744225935684,-0.0051018925057817,-0.003641184447747,0.000167726618583,0.0017558609246198,0.0060059379003828,0.006836597706439,0.0047429219808374,-0.0010111522742175,-0.0079601553352566,-0.0091225278462043,-0.0063843612916212,-0.0008538525504208,0.0075240416309286,0.0085077093381935,0.0078560799871496,0.0032919722682175,-0.0004741817690628,-0.007813660949286,-0.0111557724962,-0.0099681713378798,-0.0032801356807228,0.0085218395895988,0.0128924165187362,0.0103700795987264,0.0058842235133644,-0.003161102290441,-0.011160292066916,-0.0102153961237135,-0.0094921905556599,-0.0031272830184637,0.0055947308173109,0.0132155163744382,0.013447134295779,0.00667401425695,-0.0045486151339442,-0.0141438965154081,-0.0119002247997593,-0.0064139851463489,0.0034800184167595,0.0088216019104767,0.0098370199286605,0.0074224251151896,-0.0040658986570513,-0.0099933687365508,0.0001975672127839,0.0005586905670264,0.0002546487916665,-0.0030092631486189,0.0003264124088959,0.001088993366708,-0.0021861414167558,0.0004950566285117,0.0042513336523775,0.0062122049528825,0.0010755083826584,-0.002321263514472,-0.0037157523533218,-0.0062837943160198,-0.0041020725357513,-0.003499849512486,0.0073057053322852,0.0066135337486094,0.005415630386302,0.0026300038820164,-0.0031036542145667,-0.0047022794813148,-0.0082134293951549,-0.0057094793548617,0.0063777782461387,0.0059114182426852,0.0034327684423272,0.0008883561405442,-0.0020189545212402,-0.0039569928805305,-0.0028360642534515,0.0017040154660316,0.0043362586903043,0.0001745216921788,-0.0037081374862234,0.0019130781983688,-0.0009920323505071,-0.0018225397518741,0.0007424518892318,0.0002049294936322,0.002580861383235,0.0014227551556565,0.0039417998808522,-0.0046710927409072,-0.0097731612486642,-0.0003396656273037,0.005837296002542,0.0057417350475741,0.0014059033444152,-0.0024114910369133,0.001528648755667,-0.0007289337593729,-0.0048242624875745,-0.0052851585215774,-0.0016246454064175,0.0044202936803537,0.0055872428008962,0.0040824959501169,0.0017879710028116,-0.0012883661004867,-0.0050904342521721,-0.0020505894126059,-0.0038845688705868,-0.0033158132621971,0.0016865133016161,0.0036325978005172,0.0048048965469961,0.0077891558991661,0.0008595888806809,-0.0103096839623325,-0.0029495020155538,-0.00075190907481,0.0013228867113977,0.0020278723394052,-0.0009867179811903,-0.0049253487048226,0.0038007087262375,0.0018322195739814,0.0012648153226224,0.0045825445314344,-0.0009843014303391,0.0021730163621863,0.0011189008291172,-0.0082366467527859,-0.0076348079098961,-0.0079143420774471,0.0028679374965742,0.0105422425744635,0.0100350530473695,0.0058923953443718,0.0004578971053441,-0.0083084924947632,-0.006360904630176,-0.0034839226936971,-0.0024021450003097,-0.0002964312509458,0.0006003272526168,0.0014613936121636,0.0025437617682124,0.003301612862494,0.0056687741807073,0.0075965127130889,-0.0008863239293115,-0.007693892316633,-0.0100325615188156,-0.0104708678356762,-0.0020716571212427,0.0061376484637128,0.0120783321127003,0.0102591490357958,0.0021653224135218,-0.0055979127873806,-0.0092876669710485,-0.0014406329099752,0.0007609308760573,-0.0027645581111074,0.0023394051073822,0.0009350079664653,0.0005905757416027,-0.0012595015738166,0.0039429660614623,0.0049746133052695,-0.0069149042708837,-0.0061070429312607,0.0072424632131878,0.0034800613609851,-0.000322390796692,-0.0070643921052747,0.0005900022662053,0.0026708316567963,0.0019487469445187,-0.0056263342052762,-0.0028769129169158,0.0042030929044076,0.0023680456611878,-0.0020578676929426,0.0084127887845165,0.0042194803444032,-0.0010903541642939,-0.0089812622960425,-0.0158705801462192,0.0021566903405846,0.0040089596686033,0.0072537600990076,0.0092086843816773,0.002138381190026,0.0007070593334205,-0.0084731650767258,-0.0011858587397376,-0.0018745487953747,-0.0048331948981572,-0.001891625383858,0.0008341504007088,-0.0003020691579914,0.0049720361516887,0.0123627213078628,0.0056082049690127,-0.0046692634763969,-0.0115467944681359,-0.0073818059006422,-0.0011707485970563,0.0021992159658462,0.0004690612509681,0.0075977353532958,0.0049319918605068,-0.0010767711617391,-0.0044112533185508,0.0002769207703558,0.0030523475986685,-0.0015462235003359,-0.0040787914834795,0.000971852152386,-0.0045128438874463,0.0003808231152156,0.0011249765291345,0.0012763700287132,0.0032341283928742,-0.0010655025499233,0.0067536658132393,0.007978185602509,-0.0040854258104978,-0.0110604446830962,-0.0078334285249427,-0.0057952129955987,-1.068201110326673e-05,0.0031476909216993,0.0069606399513103,0.0171513183128064,0.0100679084794769,-0.0015608234394593,-0.0100614340206966,-0.0178153773598449,-0.0140200375096845,-0.0017247891969798,0.0051315271496796,0.0109943882682141,0.0105766178677362,0.0095335815322096,0.008741824519955,-0.0010705183450379,-0.0112336229908905,-0.0140656736158708,-0.0162555509861406,-0.0124202467892596,0.0059058618431179,0.0230097127405266,0.0199329073386565,0.0116683713931627,-0.0038032220889867,-0.0121274647292885,-0.0137807247446165,-0.0115207012745863,-0.0092307478139781,-0.0017807625612847,0.0097961563707941,0.0142182184619685,0.0178176568529731,0.0109551530847763,-0.0042608604227426,-0.0163026217917539,-0.0200871639827763,-0.0156189398164621,0.0021795355256628,0.0130368592352837,0.0160696859631801,0.0140576271124624,0.003828732769527,-0.0081226471176767,-0.0122809267283546,-0.0080295532887948,-0.0055488889092262,-0.002059300388554,0.0063671532146431,0.0083241494611126,0.0046299564023127,0.0019711700707227,0.0031182266460396,-0.0003143070410158,-0.0049899841749532,-0.0082234459732014,-0.0130491867849266,-0.0009177255444291,0.0107260441431675,0.0116856280548195,0.0090627260073904,0.0025732735529875,-0.0074724854307848,-0.0124960832842697,-0.0084824276498135,0.0012559304413493,0.0024537921333047,0.0058107115363629,0.0061666471530646,0.003275217109058,-0.0016562211683429,-0.0003978665294792,-0.000539068479259,-0.0048924030618667,-0.0077834776213474,-6.842751437649039e-05,0.0027015782700625,0.0071421872237586,0.0009727105758729,-1.3966699791947596e-05,0.0003137185610381,0.0028749281648687,-0.0022947686696717,-0.0044004899164232,-0.0048105748877926,-0.0018315375000442,0.0028579583140338,0.0056813241584644,0.0027037988808032,0.0014921945718441,-0.0010428022213222,-0.0036546394418994,-0.0021403906350332,0.0003784239607198,-0.001168833730528,-0.0021156839436387,0.0001177458430075,0.0064247300315949,0.0030443631232495,0.0007591656515068,-0.002166269475992,-0.0055469979655916,-0.0020662400455665,-0.0019735436728995,0.0013268792904161,0.0041832621788338,0.0031820312591357,0.0022761720108212,0.0008518095423122,-0.003328195785542,-0.0019774034164199,-0.0030916891931005,-0.0023603401887209,-0.0009536488627652,0.0012746441958365,0.0004022352072517,0.0039520413459718,0.0050533261112866,0.0079171984533097,0.001119041022315,-0.0088680300417214,-0.0104676858098816,-0.0072890796773551,-0.0040809910686512,0.0054955805384888,0.0080092793421595,0.0096748109925877,0.0076603652562068,0.002627090246014,-0.0048633529273476,-0.0088479726198846,-0.009311728268744,-0.0063274848728181,-0.0006862871580317,0.0015697682481848,0.0044673864715615,0.0078172968713949,0.0095555180207707,0.0057290591027928,-0.0001329920374246,-0.0068414067291361,-0.0062526047321245,-0.0103275491269146,-0.0100122104871831,-0.0016299081401507,0.0083874388298103,0.0116634980086302,0.0101046980811679,0.0039789683230161,-0.001092269370107,-0.006768150083274,-0.0048122833439223,-0.0072723254782466,-0.004493473253525,0.0008952452650822,0.0019006321479855,0.0013035318517998,0.0044268746787286,0.0040217242233503,0.0040375134406833,0.0034731732470044,0.0012179466222937,-0.0054384113156067,-0.0082573582708153,-0.0081192226274174,-0.003280898664738,0.0044716045143112,0.0044890270195052,0.0068532556027171,0.0040547002071935,0.0020606564801312,0.001359064939043,-0.0032387964221751,-0.0039050278627854,-0.0059434584253301,-0.0064537928764364,-0.0015145405831752,0.002041248545509,0.0071197152797786,0.0076911542359725,0.0033135720148548,-0.0006037089231246,-0.000297341736137,-0.0043803514095359,-0.0066774551742327,-0.0044694125778951,-0.0005226354827917,-0.0008715284822821,0.0050810731636816,0.0061304127686492,0.0063278020311177,0.0008468272188888,-0.0040992930483446,-0.0037046280201988,-0.0032121287111517,-0.0033579586583089,-0.0019248796370305,-0.0008161447714796,0.0023646608655776,0.00770920457895,0.0071424226855083,0.0013961079444151,-0.0052523227771695,-0.0077787928284551,-0.0043470791824201,-0.0021284780460506,2.1181833486054656e-05,0.0067916444586949,0.0082451061082425,0.0026230765236544,-0.0050842129891286,-0.0009674798508417,-0.0016048844370717,-0.0042728045136388,-0.0054733068971277,-0.0006855369551114,0.0039113302078679,0.0066727738679131,0.0061616296912196,0.0016718165557393,-0.0016969635993535,-0.0037138977914977,-0.0083718764733214,-0.0029121776756222,-0.0018125562370132,0.0021360027017447,0.0034061702159378,0.0062328805679205,0.0028181689343169,0.00244369093757,0.0004765863366504,-0.0022713526042557,-0.0048910154645088,-0.0059662538285616,-0.0047500633557603,-0.0032381947777667,0.0029123028266422,0.007326463246808,0.0081799310046677,0.0065267336772406,0.0017635998089997,-0.0023018487578563,-0.0081344411710917,-0.0084897612050816,-0.0073380803835509,-0.0036682458211487,0.0009823638326465,0.0047348209341001,0.0075178978047796,0.020368338031637,0.0138211707284241,-0.0035708662968802,-0.0198003515883476,-0.0206129851318079,-0.0171880549964312,-0.0063204958348471,0.0112210906803073,0.0230746168248956,0.0239163902604653,0.0138429614329507,-0.001279568216017,-0.0160529665371002,-0.025178756632124,-0.020853850912858,,,,
0.0020665516178486,0.0030559527803266,0.0059718946734658,0.0090784861500759,0.0018296943627788,-0.0004595619751405,-0.0032935860504072,-0.0065168610930068,-0.0085398586723217,-0.0047104019654048,0.0007442621994735,0.0051948662137999,0.0088511527820047,0.006163038333465,0.002929219632916,-0.0008857430279771,-0.0054004503568564,-0.0065284992712713,-0.0066909801932376,-0.0021529382091584,0.002746888930882,0.0040934080179688,0.0060635224719291,0.0041337189264579,0.0013209551577176,-0.001546707260602,-0.0043702060705283,-0.0019994217504599,-0.0044574140756041,-0.0017497068151331,-0.0013873549541286,0.0038966296893902,0.0039381811202853,0.0031477851016631,0.0036900940595213,-0.0012585215560302,-0.0011293420512912,-0.0020499033218303,-0.0060415383001936,-0.0037661401531337,-0.0012331815942064,0.0029220123835735,0.0054286726103683,0.0039240154212264,0.0036158334860197,-0.0020355475731721,-0.002660013539602,-0.0021742513422736,-0.0025807874534982,-0.0012174758307671,-0.0009369341610666,0.0001643724112686,0.0012538959244138,0.0041815841426037,0.001267863511177,-0.0004851377056585,-0.0011365501499552,0.0018136895545609,-0.001091842491191,-0.0019564695832234,-0.0003656645295554,-0.0002943662747076,-0.0015450531319038,-0.0016064605760441,-0.0007910940010045,0.0028497969873114,0.0040758399571898,0.002548560090903,0.000444561711773,0.0005256118539607,-0.0041965282791877,-0.0039050028834844,-0.0033821620755961,-0.0003255145797357,0.002788315564833,0.0035371224594085,0.0018590091304171,-1.8293269336573785e-05,9.379149565528947e-05,-0.0003068501346604,0.0012660002656222,-0.0021651647372947,-0.0007397052176429,-0.0014163896088475,-0.0015917806494831,-0.0010919841752515,0.000185481556928,0.0020782596240708,0.0015330021884962,0.002264054913101,0.0032308360581102,0.0016637032979015,-0.0041472838104496,-0.0027434607112528,-0.0045931407748822,-0.0034517138237016,9.09923568545672e-05,0.0042828338343704,0.0067567105118286,0.0054216862797306,0.0001237912620244,-0.0078463331883876,-0.0032595174120276,-0.0005486402642868,-0.0005912563686431,0.0002835230406793,-0.0030657556653764,0.0060722072804977,0.0069649578890982,0.0001050176880311,-0.0002599601426584,-0.0085939320723306,-0.0059477622093456,0.0009335379412744,0.0010772368545677,0.0066308344468777,0.0072857206486576,-0.0036594994019067,0.0003318266489221,-0.0003865362603005,-0.0053814909238027,-0.00684978327348,0.0011811726392403,0.0012591823573756,0.0037684485602296,0.0064209339264746,0.0025363392799568,-0.0018259269616145,-0.0064977134819719,-0.0013119779438273,0.0004278717955522,0.0023948686826844,0.0036393874404256,-0.0024851978706858,-0.0060851001198286,-0.0026891367489752,-0.0013057904123866,0.0057565025419714,0.0063292977935616,0.0063973515837888,0.0018187569449692,-0.0024763178624837,-0.0026323068962227,-0.0128049135574974,-0.0199125777438319,0.0060344984882546,0.0175332162985347,0.0128297762395204,0.0009068690754603,0.003703244059889,-0.0043780364705472,-0.005536953245324,-0.0095277121835847,-0.0100536463637134,0.0004519732182938,0.0051611482211271,0.0017779041363399,0.0081094570536943,0.0160213715368517,0.0032575093108508,-0.0085041859160699,-0.0124865528256146,-0.0097258610713369,-0.0044526586214934,-0.0016085515544734,0.0067402045650319,0.0144360891763036,0.0103421385021155,-0.0004083013691667,-0.0053272527314716,-0.0066195566722754,-0.0127047341158152,-0.0031276509855327,0.0077117832154284,0.0073094165870626,0.0011470541383671,-0.0057497767817241,0.0021445903743298,0.0048140588005993,0.0005341684385835,-0.0016549545178019,-0.0002793059109328,-0.0045521144869777,-0.0002675226383953,-0.0009455463383529,-0.0034418275925729,0.0014569780823732,0.0064804608894148,0.0030039870332418,-0.0061351388512633,0.003950901785892,0.0065915171876428,-0.000463756453188,-0.0142635010846204,0.0004185778860956,0.0012966141764035,-0.0008511361457935,0.0001877237707562,0.0020279697217371,0.0017438982589926,0.0072452813237289,0.0016010493919595,0.0040219882921369,0.0029611829879195,-0.0141498160639962,-0.0254221736552431,-0.0010276387105233,0.0152360803408409,0.0160105129185404,0.0092672896241351,0.0046334218213439,-0.0055069330697378,-0.0102123056557039,-0.0088324457339729,-0.0103814275118466,-0.0065311699447748,0.0146760744550875,0.0171796388814183,0.003388141631391,-0.00500407987999,-0.0045790520057959,-0.0047813208478364,-0.0082418575902435,-0.0015695455483876,0.0070813931420281,0.0144466779790469,0.0032561740126068,-0.0081234278429226,-0.0023606853432673,-0.0118101275136039,-0.008952116712215,0.0001753697942086,0.0104930299548115,0.0144610107962588,0.0122581349584164,0.0021513257265901,-0.0085146863104026,-0.0144026838371066,-0.0129010244255879,-0.0068028030367627,0.0012442354936642,0.0104149483580046,0.007149776167046,0.0124007751488271,0.0100766493466238,-0.0001740797204094,-0.0086236669787793,-0.0148793920646363,-0.0098318455955155,-0.0071039476512537,0.0054574682175564,0.0097461507559033,0.0052004148428963,0.0043646023370124,0.0049305969049918,0.0025879624514377,-0.0016486971421572,-0.0047249419242864,-0.0109765652670867,-0.0063686525122962,-0.0002160202417,-0.0009070321282728,0.0088818680224952,0.0122068834660997,0.0007548851512039,-0.0031756924923734,-0.0045106669564811,0.0029154089982543,-0.0071911567895898,-0.0075653413691569,0.008070723973681,0.0043845715524226,0.002274469102461,-0.0046742995844305,-0.0079511420207972,0.0035645829074063,0.0082809155893714,-0.0033980180691791,0.0023668660782296,0.0043080909485734,-0.006866405013867,-0.0007755593930684,0.004047723163104,-0.0058435390237954,-0.008316549779455,0.0007184758676081,0.0114423805929238,0.0002090704881191,0.0058173827096497,-0.0013728109674276,0.0009346662280021,-0.0041183415342042,-0.0042917865758883,-0.007724558760123,-0.0028418336442116,0.0039181603835206,0.0130346919208367,0.001088656217133,-0.0038006883133289,0.0017562700765203,-0.004049641731346,-0.0020721328850009,0.0064703226785221,0.0028640196141856,0.0009170770554999,-0.0167647111436824,-0.0166098414578647,0.0095963228560818,0.0170051733523977,0.0093828423760556,0.0043120585579633,-0.0021002838186298,-0.00682593235249,0.000627557193856,-0.0038636466596734,-0.0256592978748701,-0.0030798101073414,0.0179067199806938,0.0121131184272618,-0.0023146208059243,0.006464241524333,0.0074043725320317,-0.0022583765191159,-0.004634172014872,-0.0060247525623459,-0.0133047884473561,-0.0127042657685273,0.0046858247126191,0.0113663949881976,0.0093296036416328,0.0084521082528295,0.00391631752446,-0.0015705110330643,-0.0029465954282892,-0.0078703745465829,-0.0086924621020516,-0.0075624032484626,-0.001073813222854,0.0043433689218958,0.0091800793225165,0.0079315324400156,0.0039738474982563,0.0007703380481158,-0.0026751852119419,-0.0061654199364023,-0.0087793615437582,-0.0014993470869964,0.0025072442290214,0.0019873032778691,0.0015609189464827,0.0028485690910567,-0.0001583072510766,0.0009938396742212,0.0029882573343654,0.0003539356146297,-0.0053502539911419,-0.0043144960918051,0.0043426403228101,0.0006658469777049,0.0014851181710265,-0.0015798158116822,-0.0036215334588032,-0.0033830727445108,-0.0003375617319073,0.0060579849264419,0.0077745969993289,0.0025743099140341,-0.0010824299708921,-0.0044092678419466,-0.0066898595921752,-0.0054577674380499,-0.0017527424661865,0.0028030395543932,0.0049160321080758,0.0019407203288858,0.007059938290252,0.0052195263761432,-0.0018192970052095,-0.0081045307163597,-0.0064712519473771,-0.0051707057900918,-0.0007709190098913,0.0030016859504592,0.0076770022030237,0.0058291999400111,0.0025240509966537,-0.0012576569414309,-0.0046740487598818,-0.0070009414651391,-0.0002538026930946,0.0008237007250122,0.0003983963923414,0.0024272861707737,0.0014243332117394,-0.0007431610676311,0.0010809274198067,0.002443443678157,0.001226899184811,-0.0023822949947745,-0.0012101706082056,-0.0026857503092781,-0.0020660620045777,-0.0041873407637746,0.0004829733740419,0.0047069866366548,0.008140263540054,0.0056128748859316,-0.0003991156807987,-0.004613444971646,-0.008530966582038,-0.0064280428280932,-0.0006290427665891,-0.0015359054151622,0.006628142244581,0.0107684006644439,0.0027566227754138,-0.0021920079407661,-0.0028917119605542,0.0005270035367805,-0.0047886888275379,-0.0033639435504327,-0.0035285568879473,7.801240406235031e-05,0.0002887605629267,0.0056580516063245,0.0060985319546939,0.0046171001518584,-0.0008558393341307,-0.0101585452619313,-0.0036089245740647,0.0026104795564457,0.0027420081383064,0.0030837223028702,-0.0009011786760971,-0.0074941178006506,-0.0035911498390996,0.0019829016942269,0.0058610374303671,0.0083014229996176,0.0029256982223562,-0.0021167088825381,-0.005804659879377,-0.0050702637021087,-0.0048461906119678,-0.0007091994621163,0.0015940567712028,0.00330755974578,0.0053194036488962,0.0019130517892266,9.529422130145532e-05,0.00312793713481,0.0003068744797478,-0.0061277184631222,-0.0048465054856464,-0.0022080508205696,-0.0012828808788088,-0.0016251858008508,0.0013383946792866,0.0055193068341265,0.0108776938753327,0.004585986036514,-0.0010245180595079,-0.005829928506717,-0.0093629862721871,-0.0100953154431145,-0.0056767520184151,0.0037665158113667,0.0122980659927083,0.0123193038934502,0.0049855091013026,-0.0010582982312979,-0.0090827555135068,-0.0051653750170587,-0.0056587657620537,-0.005769957574198,0.0008167766735672,0.002379142391906,0.0074197763930095,0.0077647118881483,0.0037097391915662,-0.0011709692392054,-0.0034053030588928,-0.0044906201442002,-0.0040803004051569,-0.004858589669762,-0.0022669742460822,0.0007453275973335,0.0037357816872891,0.0061582841002693,0.0050197852279597,0.0048194709559178,0.0035110432639996,-0.002806993720555,-0.0103939540266959,-0.011052544324154,-0.0067555475618265,-0.0007069517313994,0.0052854777398543,0.0112918770301415,0.0102378547360601,0.0089049081313595,0.0037817839400753,-0.0040639590564364,-0.0135844732814353,-0.0170565781305491,-0.0117864838871545,-0.0045387600463647,0.0084159083483855,0.0186165882321515,0.0184826892922285,0.0115176602083191,0.0006815251143641,-0.0065122569045494,-0.0153286134563163,-0.0252362955096658,-0.0206131772901968,0.0010255993471816,,,
