0.0040546567756498,0.0054383529360273,0.0047648070131181,0.0025204752382041,-0.0003610674379858,-0.0028858019152404,-0.0043132746034351,-0.0043266483988024,-0.0030469207047165,-0.0009277226937736,0.0014084491121245,0.0033347481055486,0.0043499746877154,0.0041654584586257,0.0027570223900757,0.0003912254930581,-0.0023793039671732,-0.0047775923097846,-0.0059560209170986,-0.0052553213684516,-0.002522647875018,0.0016413769755336,0.0058898817400105,0.0085151622435049,0.0081420546853141,0.0044358290720287,-0.0015513839763647,-0.0076326261194741,-0.0112920276069714,-0.0107352742275464,-0.0057468466594346,0.0020371101207564,0.0096269816581082,0.0138301989423626,0.0126278435395765,0.0061735779242065,-0.0031081266141566,-0.0114665745056384,-0.0154230898360674,-0.0132734329508972,-0.0058050012727383,0.0040432705733744,0.0123749050011386,0.0158824473483212,0.0131611256318947,0.0052891490289871,-0.0045827038526156,-0.0125111292618027,-0.0153968296250391,-0.0122612921738691,-0.0045859372022485,0.0044210822287482,0.0112523140089944,0.0135404779969194,0.0108744906618103,0.0047041538315451,-0.0024945986059259,-0.0082928172561963,-0.0110995196383725,-0.0104258348764563,-0.0067287220345754,-0.0011125861706043,0.0049217492944453,0.009700305795904,0.0117003466009432,0.0100143039729024,0.0048001243825422,-0.0025404776622268,-0.0096397943762784,-0.0138860721235693,-0.0133775113717238,-0.0077695855133431,0.0013413138803987,0.0107477883522349,0.0166951475152441,0.0163874177473353,0.0093518823104824,-0.0020243657421594,-0.0132240580150745,-0.0194454917921817,-0.0177724871383586,-0.0086055585739925,0.0043840732526061,0.0157841580121138,0.0207615274930248,0.0171496493184486,0.0064025694242665,-0.0070021307425318,-0.0174654430989342,-0.0206512276763705,-0.015311599916431,-0.0037700604445314,0.0091152173884374,0.0180277748394133,0.0194101929712599,0.0128960567467467,0.0013773095103411,-0.0102943342077041,-0.0173901383662811,-0.0172553298665117,-0.0102985065515489,0.0003447524375315,0.0102453389310349,0.0155485655692224,0.0144880003816278,0.0079446793727278,-0.0011200826792292,-0.0090286356640522,-0.0128941569426839,-0.0116399363647888,-0.006205121525482,0.0010194153601657,0.007219790500658,0.0102345840062371,0.0092806610366631,0.0050855652535948,-0.0005596084363205,-0.0055636252940887,-0.0082623797302041,-0.0078722862848447,-0.0046287194813553,0.000318298279216,0.005199401611265,0.0081199084385284,0.0077228984189267,0.0038271881382747,-0.002301238101758,-0.0083093429973317,-0.0091962039181706,-0.0035611843947943,0.0009732668572413,0.0046912215370305,0.0048162199900976,0.006500401939463,0.004431928820394,-8.600421222306937e-05,-0.0048520703048247,-0.0077715711406482,-0.0076055740996232,-0.0043123188181775,0.0009935906424933,0.0063944286982646,0.009773782507778,0.0095596354510655,0.0053719386264327,-0.0017317967929735,-0.0096026344201114,-0.0158138353039314,-0.0111602362337057,-0.0026035195395276,0.0090267911990908,0.0143735137306059,0.0110721605791291,0.0071436518772496,-0.000170062896294,-0.0099632818849514,-0.0131743605670199,-0.0056849326061507,-0.0031333772193896,0.0022483682444617,0.0051443346384372,0.0046039605047737,0.0044456022784911,0.0037400148357242,0.0018059578555108,-0.0017863329723154,-0.0022640043066969,-0.0042815621455296,-0.0047158923979712,-0.0027398763022418,0.0001646504876598,0.0024983790133522,0.0015081902184144,0.0013670113877902,0.0005790789800341,0.0052371221017115,0.0056420537344926,-7.685474181333067e-05,-0.0029017413117261,-0.0061836515100434,-0.0092316603605149,-0.0074703688980878,0.0024566050702814,0.0065186257469399,0.0105086001414099,0.0089975142409048,0.0024254070805311,-0.0055766514600374,-0.0056855770443308,-0.0084679680090516,-0.0056096831151124,-0.0019932630390094,0.0036013028099172,0.0044351115742207,0.0080404257669038,0.0032744037807112,0.0021257885457675,0.0009692463980242,-0.0031514176456642,-0.0056889392262748,-0.008236116478694,-0.0061463651397553,-0.0029780645068886,0.0043499642191605,0.0122606060380404,0.0127661805295249,0.0041346960465019,-0.0025769293943853,-0.0051833687640616,-0.0111894830457685,-0.0125068746063487,-0.0072442448262606,0.0027421826651446,0.0099477325804715,0.0143733826233862,0.0120986056229871,0.0031376441174809,-0.0059424680479332,-0.0104890646303248,-0.0104248213805171,-0.0092161681137335,-0.004994832079941,0.0024958775729692,0.010719209833893,0.0129921750216659,0.0115866736511697,0.0035643696444883,-0.0060610531106616,-0.0100087588301572,-0.0120751830259825,-0.0110898726828716,-0.0044780168166278,0.005158043514716,0.0136494535422808,0.013414683455546,0.0104009549370717,0.0012200921354464,-0.0070964481842772,-0.0130964562919608,-0.0155754803783498,-0.0071723950368092,0.0040308754994808,0.0088736888744698,0.0099276459417699,0.0074604167208185,0.005183748040329,0.0038922264030764,-0.0037976363124463,-0.0127962990849233,-0.0136171112023959,-0.0047628823566781,0.0012075070958803,0.0050179331110364,0.0087306500796518,0.0095803277221344,0.0059663661503344,0.0029268460623478,-0.002680899690599,-0.0082123463604563,-0.0111582896386579,-0.0100874436181207,-0.0027326705342529,0.0039875199808752,0.0096460244480646,0.0115637207852823,0.0086128143328545,0.0018640582164247,-0.0058228795413616,-0.0087262626339256,-0.0094803948296425,-0.0057263004330569,0.0004006194552354,0.0034539169849627,0.0058670635073126,0.0071023665438453,0.0062062444180481,0.0002788912564162,-0.0063769118511467,-0.006042456164497,-0.0044074821076812,-0.0002906084527749,0.0051830691080142,0.0044639923263976,-0.0019412267597378,-0.0008769676212326,-0.003505960444031,-0.0022300166003702,0.0025441373401335,0.0049524086123528,0.0037629132617807,0.0005653308030156,-0.001690997212522,-0.0041534710129758,-0.0051900517434833,-0.003845176220719,-0.0004380064185455,0.003540192657512,0.0061692509777434,0.0060843548351546,0.0031868751317369,-0.0012762012042255,-0.0052918323713392,-0.0070225544608726,-0.0056581837557641,-0.0017920805612282,0.0028425346894503,0.006167417909804,0.0067336148922386,0.0044024102249762,0.0003655479504466,-0.0035147979942102,-0.0056576255301037,-0.0054483535655447,-0.0033172534808388,-0.0003005330015189,0.00252852674226,0.0044061953706276,0.0049270485713533,0.0039695536047411,0.0016942325197667,-0.0013736009516997,-0.0043431624904984,-0.0061913919044484,-0.0061798457480729,-0.0017270267499193,0.0014832832139655,0.0071328514143835,0.0067301246257263,0.0041144845518828,0.0018427545273636,-0.0017274094524697,-0.0051477731830296,-0.0069347726935579,-0.0061463913265269,-0.0028107988551812,0.0019542561051606,0.0062617786593631,0.0081941735537135,0.0066958960899235,0.0021819213327319,-0.0010360745877927,-0.0080778144856877,-0.0096384055946647,-0.0077929034895184,-0.0035800869223608,0.0059937871771803,0.0117154491498411,0.0097322095075092,0.0049202537191271,-0.0020120032082152,-0.0066819655828442,-0.0095864988073081,-0.0068517189629554,-0.0034193654703579,0.0018075041075214,0.006537380164812,0.0086545912312785,0.0072362216451838,0.0005160606945237,-0.0019331114671243,-0.0076915623973813,-0.0076784765649024,-0.004398653846067,0.0005873138462582,0.0049209493436844,0.0066032140002592,0.0049895170915297,0.0010840598169503,-0.003028949464359,-0.0052864864858461,-0.0046700514665635,-0.0016399844143146,0.0021717761533999,0.0047964125374498,0.0048763895530903,0.002308863816418,-0.0016903408432079,-0.0051386290873071,-0.006223117951429,-0.0041991837659751,0.0001813908199655,0.0049479748710863,0.0078018459787323,0.007216031203007,0.0032085884832476,-0.002603215714127,-0.0077024696218514,-0.0097876306150359,-0.0077842199951613,-0.0023210978653443,0.0044952685362656,0.0098907545818781,0.0115097309316754,0.0083951203374369,0.0014988228646496,-0.006530221175703,-0.0123066067926429,-0.0131249932666568,-0.0082566152754403,0.0005123565268004,0.0094729497145161,0.0145715019152505,0.0133045718149351,0.0060161905388769,-0.004107191183765,-0.0124398830791063,-0.0150990827989441,-0.0108449626975279,-0.0017232398528495,0.0079199637437067,0.0135801771264487,0.012794506051553,0.006260001731432,-0.0026717927010308,-0.0097757870992218,-0.0120094923685522,-0.0087980580942011,-0.0020255071210824,0.005075210689141,0.0094581721313676,0.009500147876288,0.0054986590000035,-0.0006229419568623,-0.0061839189050172,-0.0088422707809754,-0.0075369230692385,-0.0029261912848925,0.0028840037123794,0.007257311704548,0.0082181292416173,0.0053716087965058,9.530234699552098e-05,-0.0051138233881083,-0.0078263721658794,-0.0068181295367041,-0.0026140719348166,0.0027883850220727,0.0068440702234396,0.0075925024287362,0.0045220607183674,-0.0011622574960692,-0.0044931625507233,-0.0078158865274143,-0.0070544895777963,-0.0025217507981547,0.0060570636170703,0.0084736544584073,0.0069675811303275,0.0035557177954683,-0.0025141153235534,-0.0079872257671394,-0.0097940726609373,-0.0066791178608631,9.287638950313418e-05,0.0073126973820964,0.0113911212359471,0.0101356288938712,0.0038734083173935,-0.0046261484250463,-0.011407151423104,-0.0131800465698998,-0.0089015466757373,-0.0003302511765163,0.0087228387043898,0.0141231145703838,0.013325788789824,0.0065721902812088,-0.0032012035585899,-0.0116884165372576,-0.0151406862908034,-0.0120220425222715,-0.0036855524776883,0.0062131069633223,0.0133282141160379,0.0145671903209044,0.0094771315340846,0.0004213315257649,-0.0085294978759229,-0.0134567944170813,-0.0123411896981754,-0.0059129492117502,0.0027573385886496,0.0097183141186457,0.0119621421401168,0.0087651954197475,0.0019266405799363,-0.0051899726525442,-0.0093260365584266,-0.0088678309115513,-0.0044919003098014,0.0013617711857428,0.0058366544183483,0.0070726307515228,0.0049730764999567,0.0010234613425357,-0.0026383422203521,-0.0043627710191183,-0.0037514769039413,-0.0016775643571672,0.0004002834460713,0.001393754834172,0.0012055904629236,0.0006173186218168,0.0005441120328019,0.001221029113626,0.0019602117306455,0.0017016667267364,-4.545922111424065e-05,-0.0026185358088633,-0.0044855890112229,-0.0042529587899188,-0.001679654952675,0.0020510505351145,0.005010819186451,0.0056767328364445,0.0037755629033187,,,,
-0.0052397880241333,0.0019789912879171,0.009080826416689,0.0124255598458162,0.0099835880799748,0.0025255814118404,-0.0065862245685909,-0.0129949893985432,-0.0135378350552932,-0.0078564592313605,0.0014302980282009,0.0100464689156931,0.0141304238854006,0.0119888010537278,0.0047311533627026,-0.004383333474435,-0.0114508742229688,-0.0135619611110488,-0.0099332124775255,-0.0021650016935099,0.0064316748353869,0.0121980665939486,0.0126744227268775,0.0076876599646928,-0.0005391350498675,-0.008363235565371,-0.0123654640701852,-0.0108902265392069,-0.0047535591634029,0.0031957215602356,0.0094212033886621,0.0112985806832439,0.0082340116218441,0.0018221066293331,-0.0049760956676844,-0.0092133125083751,-0.0092477487323157,-0.0053764032218256,0.0004357482165619,0.0055546401762221,0.0078964061221358,0.0067798546780346,0.0030485755719206,-0.0014975572557312,-0.0049842351723739,-0.0062041593764147,-0.0049469279812075,-0.0019106912712128,0.0016513604875407,0.004388254372215,0.0053014151366978,0.0040880902854405,0.0012602517178827,-0.0020397962851986,-0.0044806060266752,-0.0050649549589011,-0.0035271504181489,-0.0004578660468364,0.0028960348007346,0.0051097613341189,0.0051761700866272,0.0029692906035176,-0.000652485879269,-0.004176308985884,-0.0060632892063819,-0.0054030840558538,-0.0023223690994388,0.002010069737518,0.0057909389626506,0.0072878667582792,0.0056174524580404,0.0012714276990471,-0.0039356703349613,-0.0076143786783792,-0.0079655168347696,-0.004747561654221,0.0005471329327137,0.0054568424040282,0.0078239404521492,0.0068377280421352,0.0032790965448311,-0.0010845128096833,-0.0044991306159786,-0.0059919352783176,-0.0055286079051616,-0.0036491105355263,-0.0009977234471379,0.0018829868810118,0.0044571253057556,0.0060597348644322,0.0059924673172846,0.0038806849908346,6.107274604415306e-05,-0.0043082113593472,-0.0075800072396455,-0.0082974806821171,-0.0058992518616147,-0.0010744072518126,0.0044443156608633,0.0085650982579777,0.0096740685835943,0.0072581518686258,0.0020928836334776,-0.0040267149982357,-0.0088953825782531,-0.010663285003654,-0.0085333228471193,-0.0031404123728349,0.0035868991684637,0.0091061576058708,0.0112559719193232,0.0091562113009618,0.0036037921017511,-0.0032392745303828,-0.0087407575099129,-0.0108675016953182,-0.0089504511109716,-0.0038519670801025,0.0024538874032136,0.0076519618324543,0.0099104225987222,0.0085064487079438,0.0040689913004077,-0.0016580250479595,-0.0064845955948551,-0.0086431119155589,-0.0074926387431992,-0.0037285422868318,0.0010047570644042,0.004885531368652,0.006659824042527,0.0060112610970091,0.0034787739987088,0.0001017794577754,-0.002975792320182,-0.0048323060689078,-0.005017476979718,-0.0036862532550783,-0.0015140812057562,0.0031278191563475,0.0045500951530412,0.0024631691203965,0.0019967006109667,0.001041205158243,-3.2146760928244866e-05,-0.0010767285517061,-0.0021324849251486,-0.003198777515311,-0.0040163303171657,0.0008239527202709,0.0019285986710574,0.0016370983898134,0.0014313029857566,0.0028632934245982,0.0027233537055512,0.000930161057713,-0.0020433197677486,-0.0054213426485809,-0.005834648207877,-0.0001800567034408,-7.988746035532004e-05,0.0040320959257581,0.0065501539707829,0.0038670948877321,-0.0003268394715921,-0.0011575222906715,-0.0050622413748961,-0.0055557802115352,-0.0041088040382796,0.0015797104578838,0.0050038783154667,0.0066228121960517,0.0026279734596741,-0.0015828195614318,-0.0039731393588887,-0.0046716928516987,-0.002120789831521,0.0005389090129822,0.0038555387964412,0.0032936474651364,0.0029617988292683,0.000959523579313,-0.0036879943095318,-0.0050279309744955,-0.0053304729635074,-0.0005879295917337,0.002934386818179,0.0071565422508035,0.0072342730243406,0.0020016395497558,-0.0044700537301462,-0.0057458773065164,-0.0085715043811066,-0.0035066696047778,0.0009054913406524,0.0076826403667763,0.0076413470856104,0.00674442096376,-0.0004060722601646,-0.0053840510443167,-0.0083815020497141,-0.0041581449284923,-0.0030782732458411,-0.0003937046400248,0.0040854706073447,0.0069994093551246,0.0057609583001986,0.0040947371776696,0.0034514599290548,-0.0028447708554242,-0.0117174769279405,-0.0109511142956616,-0.0075937440743518,0.0018608036504773,0.0074595271806979,0.0107761424061862,0.0121113891591452,0.0060071360940836,-0.001304721664994,-0.0068798305745636,-0.009653598914788,-0.0123032774447237,-0.0092675217949236,-0.0023638407650725,0.005012614147084,0.0117591491137533,0.0151250998264761,0.0141673490139213,0.0058947967132184,-0.0063944161596048,-0.0159178893201882,-0.0215837057879849,-0.0169002453760447,-0.0008678777101865,0.0126492436431265,0.018339404216239,0.0169740944846728,0.0122608329464908,-0.0002733923481666,-0.0104153792911534,-0.0180455072359578,-0.0158499293526681,-0.0072191860639433,0.0014364242531321,0.0100680968447716,0.012180465482502,0.0114208971478682,0.007265804748262,0.0016739526972676,-0.0082601549036294,-0.0146457052287011,-0.0096284896163753,-0.0029219675533134,-0.0007078086721927,0.0080870372264489,0.0119276801434018,0.0091927843383663,0.0004258836591511,-0.0063944224649007,-0.0089810053492991,-0.0076026661187265,0.0007832352805444,0.0033039554023926,0.0078019769033386,0.0039130793913275,0.0006271806021897,-0.0045563725484357,-0.0097926691656507,-0.0047714098553948,0.0046089877664583,0.0087683375977705,0.0079760573431571,0.0034721159756211,-0.0036759583769356,-0.0086342667882963,-0.0059693791049864,-0.0063161099637096,-0.0004492192998222,0.0016000428986067,0.0085357029718527,0.0086561612428423,0.0068758028182903,0.0030461281065849,-0.0049290470712204,-0.0095868645134783,-0.0128031967078221,-0.0081792129376775,0.0022338765351497,0.006498993953692,0.0130559118281822,0.009505487506248,0.0044122853302216,-0.0031888097524352,-0.0093391097303739,-0.0083984386905781,-0.0054303573532083,-0.0013742130882842,0.0024399030123789,0.0048236448090907,0.0051911739822178,0.0037485260827941,0.0013319467254048,-0.0010263248966365,-0.0025782929298851,-0.0031208056476157,-0.002900802607334,0.000215282217524,0.0009995288255067,-0.0006282149079105,0.0002759472114569,0.0010759134001298,0.0015303290013969,0.0014022801410674,0.000665402545311,-0.0003793257062551,-0.00121955909019,-0.0014277389029517,-0.0009296524666624,-4.993164956358978e-05,0.0006944120794218,0.0009013187688996,0.0004926692638039,-0.0002752889650134,-0.0009661767190332,-0.0011800689853437,0.0017424853854199,7.591119932836832e-05,0.0007340652199812,0.000506132503228,-0.0011552158380325,-0.0019234130943448,0.0031934216260392,0.0028409175697539,-0.0022815845631432,-0.0038249017504777,-0.00074361203614,-0.0018519030087801,-0.0019937198143484,0.0026404000538921,0.0048656500711625,0.0046459219914346,0.005174774528511,0.0017113387944596,-0.0059528555858316,-0.0097030884925104,-0.0115978782551496,-0.0058031969094436,0.0033454551369485,0.0119798593679112,0.0159376583073451,0.0128318010761521,0.0034065888703911,-0.0085892511123586,-0.0180438752333337,-0.0208565942980081,-0.0109652024799901,0.0019891128489067,0.015518816460144,0.0222893383182513,0.0168124012970434,0.0068688750189879,-0.0066127295953525,-0.0159925817052012,-0.0194766674250667,-0.0153656051371051,-0.0052453669782957,0.0067078593939886,0.0155130390829216,0.0200361917654743,0.0145565868953775,0.0040201368294478,-0.0095950506121066,-0.016729067044124,-0.0171361175364667,-0.0109411066784327,-0.0009387338299778,0.0087248284028536,0.014338784951577,0.0140786647926045,0.0085488368489035,0.0002952573152376,-0.0073819799748653,-0.0117446867048255,-0.0115426007764264,-0.0072886561953259,-0.0009001427422135,0.0051043858653827,0.0110575973326416,0.0108867522359872,0.0073876244625885,-0.0004990114502298,-0.0057692729617021,-0.0091027987974073,-0.0095341389869564,-0.007256741348716,0.0014815750763368,0.0077945541239077,0.0076238655007634,0.0076707928522785,0.0032241546723822,-0.0023532024451765,-0.0050278703052384,-0.0061185360219954,-0.0051625988730958,-0.0025237076587267,0.000850459232817,0.0038165763170063,0.0053890574555862,0.0050082164809811,0.0027312427986491,-0.0006979167711021,-0.004002353673786,-0.005800639498911,-0.0051989529262932,-0.0022798977170873,0.0018013532094736,0.0052456574352387,0.0064213973533153,0.0046742145890619,0.0007003111245728,-0.0037442284181901,-0.0066678938956805,-0.0067790478670813,-0.0015760566807704,0.0026458130802067,0.0038842585207191,0.0054199576458812,0.0041956605372841,0.0010304819423226,-0.0024198165403261,-0.004558144553651,-0.004576870568463,-0.0026963842467787,9.322967958625936e-05,0.0025553711023282,0.0037253706284748,0.0032487582672603,0.0014697122681303,-0.000735893664757,-0.0023419439791298,-0.002654312637964,-0.0016894899618556,-0.0002242574484056,0.0030508859532378,0.0020851061228859,-0.001033877282452,-0.005773123178927,0.0014978866054125,0.0029770476506969,0.0020612383327894,0.0009293467129087,-0.0014114021675599,-0.0011892483978514,0.0009913912979607,0.0004907781009814,-0.0024225584218921,-0.0027119809255286,-0.0004951550055919,0.0012765051896259,0.0021531712548978,0.0019602184634403,0.000965150141916,-0.0002126368553625,-0.0009364313065705,-0.0009280996035403,-0.0004232596518989,2.436110779680133e-05,-3.1398635194957606e-05,-0.0005801151396062,-0.0011482428705745,-0.0011468344979061,-0.0003156866867563,0.0010613501049151,0.002311016294288,0.0027621584894274,0.0021009946750589,0.0004955609269769,-0.0015154933751653,-0.0032415648510478,-0.004042522589544,-0.0034877868772489,-0.0015142622267741,0.0014215958866503,0.0043232877867597,0.0059272395819702,0.0052701338252585,0.0022825175717647,-0.0019913202153679,-0.0057740543587663,-0.0073807640658912,-0.006034176737613,-0.0022266334149321,0.0025246285878678,0.0063483154384577,0.0077700306968709,0.0062434109147856,0.0023175330605831,-0.0025621503867114,-0.0065451432996324,-0.0080373144401157,-0.0063443497743576,-0.0020447693886587,0.0031369015568928,0.0070055935749786,0.0078750347262899,0.0053779189054401,0.0006642583968116,-0.0041387563474905,-0.0069272689080724,-0.0065735468089316,-0.0033859723768707,0.0010957163335819,0.0048324411132528,0.0061997448755229,0.0046884170049708,0.0010982499336811,,,,
0.0128258723490704,0.0013745225667233,-0.0105561543590281,-0.0179032011033351,-0.0176944101883766,-0.0102004746191093,0.0013387163093206,0.0121677209587879,0.0179568201744997,0.0164631416605949,0.0083537004118484,-0.0030624785914705,-0.0131280570453449,-0.0177351403696891,-0.0150770821528005,-0.0064368158597411,0.0044273308435861,0.013027585218943,0.0161288656402535,0.0129693302377413,0.0052366661403247,-0.0039340739014473,-0.0112544451883169,-0.0143138350725578,-0.0121877410845195,-0.005673924528306,0.0028794057638634,0.0102836501575962,0.0136938883457675,0.0118127193508199,0.0054789629738112,-0.0027126217169934,-0.0095610642319441,-0.0125774383280754,-0.0108690611611999,-0.005299970485924,0.0019903854080784,0.008406692649961,0.0117400703717379,0.0108303837169072,0.0059400869617488,-0.0012560489941358,-0.0081480079048124,-0.0120876211812838,-0.0114301281498457,-0.00628070101746,0.0014380712057355,0.0086995480908651,0.0125995127085053,0.0115657371532535,0.0060108558168149,-0.0018546092939667,-0.0089445009557455,-0.0125358409295975,-0.0113090308084677,-0.0058043786999525,0.001832516994672,0.0086844104370061,0.0121631014208936,0.010986834571421,0.0056715401849199,-0.0016741882759387,-0.0081929220202125,-0.0114212805200818,-0.010248064623351,-0.0052906480029489,0.0014322078066537,0.0073421455696739,0.0102829810371828,0.0092729819062898,0.0048026923024621,-0.0013692265187609,-0.0068408798242524,-0.0094525087788354,-0.008175869835236,-0.0036317713416747,0.0045949633375364,0.0063596667717953,0.007226654381224,0.0044738427435109,-0.00028669687056,-0.0044854390618591,-0.0059641341992698,-0.0040968958978621,-8.29501647105881e-05,0.003745290424131,0.0052306529203549,0.0035895715377066,-0.0001863078970117,-0.0039475508104812,-0.0056267077223326,-0.0043468693280995,-0.0007897550113554,0.0032800567923506,0.0059555790928877,0.0060520751285388,0.0035280063266899,-0.0006009327940872,-0.0047001892931139,-0.0071082816439976,-0.0067336221037038,-0.0035180858956993,0.0014170440979871,0.0061008973509095,0.008484743052411,0.0073598833486826,0.0029892022512564,-0.0028894636431761,-0.0077545265671708,-0.0094151687914877,-0.007035553733804,-0.0015581206738824,0.0046971908558748,0.0090594174695098,0.0096610749422122,0.0062068028638682,6.489322155352722e-05,-0.0063095959678205,-0.0103641805276019,-0.010457655892298,-0.0064945598443072,0.0025396860087525,0.0091050556936799,0.0130033049367045,0.009909632706133,0.0047108813926064,-0.0032613168348936,-0.0108524134061289,-0.0148719539302935,-0.0134616289600637,-0.0044226267317219,0.0072112454612284,0.0153901611625992,0.0163794615857163,0.0150555368680395,0.0017775987846517,-0.0115962166762888,-0.0211526788596755,-0.0154399398686576,-0.0114468776029323,0.003394551794766,0.0171418226883276,0.0190281821595777,0.0108031318969833,-0.0015785661058535,-0.0067154153376073,-0.00635330737046,-0.0067375178487181,-0.0060715065999557,-0.0052548840370418,0.0003302530480873,0.0026851264841666,0.006621209600494,0.0041096548200901,0.0056672540850176,0.0053824766634965,7.360975135337522e-05,-0.0070658902332023,-0.0081702446713244,-0.002727546438251,-0.0024816731848789,0.0001424343554306,0.0016523032714733,0.0026970341854436,0.0036052559254576,0.0076966249985681,0.0027633962076318,-0.0046724349847603,-0.0045121592437788,-0.00349130423395,-0.0022760283438253,-0.0010220989764579,0.0007392327889688,0.0024341517142409,0.0037346241564651,0.0007062410134443,-0.0015930901992503,0.0010362746455698,0.001598108352096,-3.86758317805233e-05,-0.002905624115963,-0.0028249366299641,-0.0016866072932005,0.0008814271955123,0.003248040417314,0.0024822753367442,-0.0009750469511069,-0.0010465113221364,-0.0010387847019933,0.0006407893264872,0.0002323694877353,0.0004713901596361,-0.0015450403681583,2.813252805512117e-06,0.0009918100150761,-4.493110350933211e-05,0.0011803027763207,0.0002982777328218,-0.001314652343134,-0.0021965638090936,-0.0015752407959414,0.0002641973026822,0.0021967831232833,0.0029214322477534,0.004197292332481,-0.0012209686796707,-0.0021063277483184,-0.0042527853619307,-0.0038359034244474,-0.0007578208843086,0.0010313705645603,0.0040167846378333,0.003258676308938,0.0001687761499547,0.0053434816539996,0.0021745221012606,-0.0065040638890361,-0.0088385650608225,-0.0067334931751529,0.0013303451480611,0.0059625643603109,0.0074087097614775,0.0063418182580178,0.0026280466842602,-0.0028401881320149,-0.006001726282012,-0.0055599929498756,-0.006263522025772,-0.0070195242973811,0.0002140819553825,0.016779089156989,0.0163866668611129,0.0047435377189287,-0.0093102599039095,-0.0145913100356855,-0.0148033752158147,0.0005746765957134,0.0070927691444209,0.0102930477214441,0.0076059398085979,0.0018088366562998,-0.0078515460612363,-0.0024446298084327,-0.0006456595611157,0.0007122079220152,-0.0025028910704499,-0.0044132010850381,0.0034546962283411,0.0027827730168313,0.0009911666346809,-0.0019175001379003,0.0062373560648698,0.0023680306658327,-0.0031553784734644,-0.0071298678342829,-0.0034088597281448,-0.0013561501103721,0.0039705112031966,0.0043163352727288,0.0074345100169978,0.0002407141280274,-0.0055086344920146,-0.0082946924812537,-0.0002435701588654,0.0008994632564201,0.0033155941039691,0.0072329933508549,-0.0010343347490766,-0.0044558446302273,-0.001745311834939,0.0021232367084074,-0.0006997663728159,-0.0023114834309791,-0.0038464694328494,0.0051060054277424,0.0078010625427134,-0.0023243702578067,-0.0043492572536095,0.0001506258789018,0.001295235822735,-0.0005197796297753,-0.0055386639353137,-0.0034859017903006,0.0020770129252425,0.0062441953721999,0.0059325779715917,0.0015097713551363,0.002157264033123,-0.0003153915238587,-0.0083969844770147,-0.0127126170020712,-0.0077367030540603,0.0040180588153944,0.0115329912759115,0.0108822825999741,0.0085541972148211,0.0045155992350831,-0.0073659892965283,-0.0103278602102845,-0.0101330308872657,-0.0086100503269051,-0.0022277773263428,0.0035992970656583,0.0084715787924256,0.013104977603808,0.0131261858747386,0.0012561645128035,-0.0043773430134271,-0.0106693081219809,-0.0140257622822025,-0.0132746640645488,-0.001619676783183,0.0081463728809552,0.0136807268658714,0.0123444964984126,0.005553972052372,-0.0019722127022543,-0.0052635460989134,-0.0077613822013963,-0.0068512714311473,-0.0034432982289324,-0.001224828919423,0.0006234697851116,0.0007628111586747,0.0053718012868251,0.0071414795445688,0.0068911063580913,0.0032816450558156,-0.0023641292613265,-0.0089697740905166,-0.0093304912307819,-0.0065281549463406,-0.0016116316996864,0.0043211545274711,0.0111661145423655,0.0074388911319457,0.001964072540805,-0.0010483555889188,-0.0056335312639473,-0.0072094177810819,-0.0020675069710371,0.0002639434165755,0.002899368398163,0.0022438698620944,0.001198556139814,0.0011768411507532,-0.0010201117480915,-0.0015772637055713,-0.0027013647486065,-9.72955277648922e-05,0.0024770833000429,0.0037893320127903,0.0031321625326802,0.0006148281767684,-0.0028622326612145,-0.0059627984917941,-0.0074519989055663,-0.0018064881819006,0.0008586237057999,0.0067210685140748,0.0115242144953786,0.0066964575351859,-0.0008261945210821,-0.0050524046234847,-0.0086221184083683,-0.0092373572454099,-0.0059163776280259,0.0002713470424807,0.0065530334366968,0.00977267755319,0.0080674421326633,0.0069080974632138,-0.000655224426719,-0.0109452567377703,-0.0115342244574257,-0.0070577412637648,0.0002136241609752,0.0066037705786753,0.0089815010973357,0.006456164134975,0.0008166153217349,-0.0045545987686165,-0.0066549252153474,-0.0045550958450815,0.0001786260863359,0.0045364811456804,0.0058977934933571,0.0035201479215976,-0.0011517968772985,-0.0054285193296671,-0.0069197405590187,-0.0047845286470369,-7.706949889412361e-05,0.0048769321634943,0.0101508014723917,0.0068246888200021,0.002607886495373,-0.0032076986865894,-0.0080015111679038,-0.0095190201805934,-0.006938781408982,-0.0012859578397026,0.0050100086660495,0.0092086861524494,0.0094964717806488,0.0058020795919149,-0.0001905836954418,-0.0058477899465934,-0.0088178973502059,-0.0080670398950584,-0.0042192001109211,0.0008874022628212,0.0051120438611315,0.0069256985783471,0.005960305479851,0.0030195872835192,-0.0004205821653914,-0.0029820387027718,-0.0040169012882713,-0.0037362718784321,-0.0027929894074044,-0.0016793290737796,-0.0004308927831539,0.0011514010490823,0.0030027464155535,0.0045013446415368,0.004698052328792,0.0029602597463702,-0.0004270473364456,-0.0041703234615702,-0.0065247412656815,-0.0062068984911001,-0.0031322748498027,0.0014515535094403,0.0055147348467657,0.0071939995177662,0.0056772911299417,0.0016144898333393,-0.0031368281862636,-0.0063404204946597,-0.0064421334265372,-0.0033773164416791,0.0013092449376135,0.0051798896430741,0.0061670941191571,0.0037283599063403,-0.000788041536904,-0.0048433465280208,-0.0061222752472138,-0.0038540860186468,0.0007354567796239,0.0051087243877215,0.0068332675303709,0.0049097363061964,0.0002779781864673,-0.0047215947253868,-0.0075740045196799,-0.0068365193153691,-0.0028094903949185,0.0026388096331409,0.0069741236306846,0.0081983777751643,0.0057900416140326,0.0009235781009557,-0.0041483810363719,-0.0072245750101338,-0.00718560483496,-0.0043882169190255,-0.000286466012693,0.0034041632033627,0.0054820778212645,0.0055992653561622,0.0041203621618563,0.0017321930362156,-0.000896333597382,-0.0032383326610467,-0.0048574166056149,-0.0053442177261735,-0.0043782166502407,-0.0019235030422025,0.0015626914645918,0.0050804287371047,0.0073151568655478,0.0071303720667809,0.004151594909884,-0.000850625452465,-0.0060599566576841,-0.00927977602854,-0.0089294390258758,-0.0048845228673674,0.0013187431183537,0.0070929626342914,0.0099651920682801,0.0087268455548066,0.003990015190055,-0.0021228716870217,-0.0069876106509934,-0.0086771163257703,-0.0067726468216707,-0.0024280528471772,0.0022869104751096,0.0053894680584514,0.00582999697956,0.0038228966240063,0.0030767217892769,-0.0023928492345393,-0.0039613697675459,-0.0037573243783713,-0.002159102672553,-4.780574690264575e-05,0.0015901290999305,0.002085493651015,0.0013724376861235,1.6387953439589203e-06,-0.0011581926556353,-0.0014063698600823,,,,
0.0033880320369566,0.0053006854251618,0.0044680625664171,0.0010355590164708,-0.0033764111567182,-0.0064808479369213,-0.006537937415646,-0.003297690776916,0.0018250800202425,0.0064104426239322,0.0081909006950906,0.00616085933617,0.0011155586459489,-0.0046613161841721,-0.0084501007030779,-0.0084006904990891,-0.0044529151395268,0.0015931903738072,0.0069119749598228,0.0090054928483025,0.0069214922673836,0.0017194018452224,-0.0040720435750581,-0.0077310389687755,-0.0076753199767705,-0.0041595120498787,0.0009722229374342,0.005271191956037,0.0068613798632017,0.0052435481609,0.0014018461609044,-0.0027622523543667,-0.0053501211007852,-0.0053041112965196,-0.0028124633013955,0.00085273732938,0.0039557885613972,0.0050888506281578,0.0037888672647728,0.0007138913149917,-0.0026910708374112,-0.004871065101751,-0.004854104152065,-0.0026478895139895,0.0008013965635743,0.0040279726139396,0.0056548795980209,0.0049599288315114,0.002179981402756,-0.0015845341819736,-0.0048372731511974,-0.006311003716717,-0.0054548869758325,-0.0025843704594993,0.0013075050124425,0.0049242964088184,0.0070519413851601,0.0068701877894852,0.0041964237427672,-0.0003377201773303,-0.0052832690942634,-0.0087169294619236,-0.0089746836537147,-0.0055228315285423,0.0005259914201653,0.0066836175809182,0.0101716758072748,0.0093223258159188,0.0045066133392116,-0.0019977134536063,-0.0071753725237675,-0.0088238423669531,-0.0066060719824756,-0.002051987217425,0.0024140583650057,0.0048128424947821,0.0045627353816424,0.0025619324285323,0.0004355518311531,-0.0005411167796705,-0.0001774086018535,0.0006483788804426,0.0006796102985323,-0.0008185056986429,-0.0034932986758476,-0.0059843984020547,-0.0017290369347262,0.0003992785891585,-0.0001711847740173,0.0044482510025536,0.0071306609009291,0.0064963587902523,0.0026914336544532,-0.0026574249883286,-0.0071708842567476,-0.0088084644478767,-0.0068151082194402,-0.0020592164280727,0.0034095751025728,0.0073427421437937,0.0082913797163747,0.0061320514736505,0.0019426264072277,-0.0025955979525743,-0.0059110997247849,-0.0070539821352259,-0.0058704624221226,-0.0028927714482008,0.0009088000059098,0.004391690127116,0.0064922125131621,0.0064831483390799,0.0042273309602376,0.0003350955983538,-0.0039083027645406,-0.0069163929100394,-0.0073981222587564,-0.0049491081997883,-0.0003511488426603,0.0046215889749168,0.007879490680724,0.0079169071810969,0.0045204279099413,-0.0010716502848944,-0.0066543621858921,-0.0099548681324683,-0.0046650016988053,-0.0007015066576067,0.0026944313730206,0.0051433649346989,0.006870140322166,0.0044319456993365,0.001240744531681,-0.0053891176158987,-0.0078909619346283,-0.0042944829419658,0.0006595315044877,0.0031891222400485,0.0056006009629449,0.0006807892061287,0.0025492866003505,-0.0002435486813904,-0.0057330498531,-0.0045612916260917,-0.0009430023012689,0.002360125009284,0.0037705991004951,0.0037071316198661,0.0035771192549166,0.0009760661981813,-0.0028103200463181,-0.0059553728449908,-0.0069076652666411,-0.005023171430062,-0.0008096050875793,0.0067393058475792,0.0106019166772889,0.0088834389270262,0.0055849056866879,-0.0013222418969574,-0.0099209290017499,-0.0175289911889662,-0.0095758533371911,-0.0021805477919097,0.0056169286628001,0.013084138290993,0.0170454176819894,0.0105897718470383,-0.0032740911555527,-0.009638400545287,-0.011742133219618,-0.0111884909105502,-0.0064354984620195,-0.0033451796914047,0.0055103926930761,0.0146876074944675,0.0143891897206761,0.0079167733163388,0.0001303151273155,-0.0101727368648977,-0.0133591093632796,-0.0093561324371242,-0.004144801167981,-0.0005996339595326,0.0058903803381091,0.0093355828148487,0.0067136163040948,0.004366415254988,0.004232012812487,0.002811773628655,-0.0051533653709821,-0.0145682598967623,-0.0126093213903712,-0.0059781876765865,0.0028069174418559,0.0083155708556382,0.013383377707818,0.0147799334124837,0.0031186652022258,-0.003504446071854,-0.0108507945522693,-0.0100346170090761,-0.0096392179107493,-0.0045473828288619,0.0018505516328583,0.005717484274016,0.0101076097606405,0.0064468217754052,0.0068712006323766,0.000356713571827,-0.0009200386956049,0.001078114671204,-0.0092838957883781,-0.0155601507619301,-0.0204242097240814,0.0025752335966551,0.0096731490200189,0.0196533277590815,0.0210761636409704,0.0158620573409529,-0.0008460291658396,-0.0193957086695567,-0.0255625101679687,-0.0255289093904021,-0.011990250857742,0.016335167113493,0.0244004260579671,0.0249434598875367,0.0115408328008695,-0.0023792102211104,-0.0097099627797619,-0.0150005047905823,-0.0153151862276499,-0.0096858457958244,-0.0059451787989373,0.0044619921345735,0.0137913476010039,0.0174720145631033,0.0131271798861339,-0.0031873953664805,-0.0011182281489043,-0.0075448154383522,-0.0135633968007251,-0.0153477788730214,-0.0047622802519607,0.0074410173635573,0.010047129398071,0.0122083393490148,0.0083096792828073,0.0019703046687637,-0.0088586679238641,-0.0084871034650102,-0.0042466470543914,0.0002478252446684,0.001994209111989,-0.0015652668027117,-0.0031181026485338,0.0023445413472231,0.0044410373460217,0.0062004468682937,0.0041475977345708,-0.0028750654598131,-0.0064979720268621,-0.0038657682320984,0.000488440441535,0.0011708238707883,-0.0023077827300802,-0.0009284291430947,0.0025735282403312,0.0059826987457077,0.0021243219563047,0.0003638025556954,-0.0049162315274102,-0.0019703961725431,-0.0033829836531671,-0.0013696055023824,-4.2306816412044087e-05,0.0039102242820925,0.0064243107213587,0.0053275117151053,-0.0020321360936,-0.006138750064642,-0.0078617997512811,-0.0074522077712655,0.0046165994658457,0.0089737097297363,0.0059009968847023,0.000555815592999,-0.0016890733171732,-0.0003153294949656,-0.0051666191966631,-0.0022973040788771,0.0001109689470192,0.0015024315774111,-0.0004564639121594,-0.0028363652165299,0.0002927805186923,0.001913373169225,0.0042400566190054,0.0038279731129339,0.0023573304909531,-0.0004581618221824,-0.003366041320133,-0.0072832866351521,-0.0059348878267601,-0.0019786087177043,0.0031517274503204,0.0043186746343662,0.0044301828150239,0.0079024355518756,0.0041385052801686,-0.004159481041806,-0.007237402600763,-0.0062676023068834,-0.0021582132621956,0.0005623532141459,0.0011191779268824,-0.0001886779459292,0.0038827519640647,0.0051691693386049,0.0042392671300045,-0.0015370480127927,-0.0037738252496675,-0.0032746188918176,-0.0012649091056249,0.0006979657608895,-0.0008318614093736,-0.0012001734795761,8.579270972501004e-06,0.0007874642736294,0.0014022995952963,0.0017466919318556,0.0015250246987042,0.000587256301044,0.0016563623897634,0.0002597277596478,-0.0030700428983654,-0.0030498046534242,-0.0022326368404278,-0.0010161411633547,-0.0001021463738669,-0.0003352098910897,0.0001286226475588,0.003540702340957,0.0083885027835455,0.0061774441156776,-0.0015083311025574,-0.0063034068761562,-0.0102801917461066,-0.0067274026833722,-0.0021172432264234,0.004161357217147,0.0077865409713703,0.0078412845136459,0.004700861957941,-0.0001974951698645,-0.0051057633502458,-0.0062910569352412,-0.0060516412918272,0.0001508829158309,0.0019240547272883,0.0060671901696038,0.0029111781091096,-0.0019694618213407,-0.0029398115380131,-0.0020256713698917,-0.0019951909380835,0.000847921651827,0.0048367254371119,0.0059237877615191,0.0035866702048687,-0.0012239312215423,-0.0062882343040579,-0.0090138515835057,-0.0076760967589984,-0.0023896874054138,0.0047422730456638,0.010476163519246,0.011934215934976,0.008056128107483,0.0002520628988137,-0.008127482950802,-0.0132992391038216,-0.0128166803525519,-0.0067433763808304,0.0023318222512857,0.0104439711885475,0.0140401484506826,0.0115927102605635,0.0042851121530507,-0.0045688298960349,-0.011094426563991,-0.0126311034149102,-0.0088452577100314,-0.001701609187632,0.0055841168741044,0.0100267451778897,0.010086662298893,0.0061345141108758,7.878658922115605e-05,-0.0055580655951041,-0.0086527104890322,-0.0081915967283209,-0.0045080540920524,0.0009197369634915,0.0059854609095447,0.0086574098294146,0.0077209263383552,0.0033410658582437,-0.0028260296357063,-0.0081537066191224,-0.0101124178573843,-0.0074766287095082,-0.0010827401678619,0.0063353621370263,0.0112946770864985,0.011228772794139,0.0058510296625372,-0.0025415494689699,-0.0100764530250884,-0.0131752190068683,-0.010331126454235,-0.002856672231081,0.0057874742740527,0.0117042785374425,0.012405137522374,0.0078711113585188,0.0003806136779835,-0.0067044846191026,-0.01052505512412,-0.0099068284653151,-0.0056373255765124,0.0001677937743369,0.0051657134900645,0.0077516645341085,0.0074781006319128,0.0048992595422653,0.0011132069521999,-0.0026781550063596,-0.0054363443909854,-0.0064253277277841,-0.0053388456959262,-0.0024486072158104,0.0013336716741938,0.0046417213250966,0.0061418540879837,0.0051567335254735,0.002085980694447,-0.0016842798429432,-0.004421049781761,-0.0049220368624265,-0.0031369035899884,-0.0001636298401728,0.0023833884453728,0.0032618309218266,0.0022312310691535,9.083926709344394e-05,-0.0018343984115283,-0.0024233405404629,-0.0013202283746732,0.0009011292449543,0.0030051537280904,0.0036826650898946,0.0022353525959078,-0.0009527012873828,-0.0044451444555913,-0.0063679164849072,-0.0053638247378097,-0.0014027492605382,0.0040109418502381,0.0084043786744037,0.0094598609615535,0.006188262201388,-0.0004231351662547,-0.0076632676364662,-0.0122190469131651,-0.0116981281890422,-0.0058448006398317,0.0031566896757029,0.0114937803190474,0.0153487046724299,0.0126495416235292,0.0041623959656779,-0.0066399269705305,-0.0149962908816138,-0.0170119095357113,-0.0115575758986191,-0.0009367375050615,0.0101080813519957,0.0166288427934861,0.0158300708632112,0.0083317270231581,-0.0022829494357831,-0.0113059598295982,-0.0151018355494743,-0.0125760041573052,-0.0053399167286378,0.0032961213079273,0.0098707891928544,0.0121285401672358,0.0096966815446211,0.0039659971956393,-0.002639341687487,-0.0076571848122919,-0.0094701543659612,-0.0077767906057258,-0.0035325700171224,0.0015402408661539,0.0056292519792641,0.0074377539918998,0.0065475989598504,0.0034733087375557,-0.0005748602921806,-0.004135290182903,-0.0060046211549691,-0.0056407287392753,,,,
0.0062958070685943,0.0051166482390957,0.0013154976247527,-0.0032658562748178,-0.0063035357344468,-0.0061739445240611,-0.0028590942552992,0.001949947713216,0.0057030412536673,0.0063863960326983,0.003663320440769,-0.0009363500665413,-0.0048944082515169,-0.0061092073788798,-0.0040061790262512,0.000227665335494,0.0043317511900999,0.0061556934260293,0.0047288415031855,0.0007245580316039,-0.0038702938247916,-0.0067190886728064,-0.0062856198975161,-0.0026207401687573,0.0026115146710593,0.0069052068838581,0.0081219072294044,0.0055461823687871,0.000255806099826,-0.0053805332004357,-0.0088151060308523,-0.0084833213183265,-0.004475088342555,0.0015435508111188,0.0070634088623117,0.0097752743108532,0.0085036019687267,0.0036871173495006,-0.0027677455428051,-0.0082214272099585,-0.010370574780846,-0.0082406726237164,-0.0026647143342108,0.0040196007906773,0.0089757470267165,0.0101308586479297,0.007086986094524,0.0012476179042081,-0.004863722738211,-0.0087282887265036,-0.0088790133555105,-0.0054462980142034,-2.3136301973223326e-05,0.0050589284278684,0.0077317747154184,0.0070520796239363,0.0035556729615311,-0.001050247666976,-0.0047133920740941,-0.0059839722061844,-0.0046201429599229,-0.0015705763028388,0.001605922893463,0.0035335730080132,0.0036102445763263,0.0021498581088509,9.241800682022006e-05,-0.0015120630291231,-0.0019893591548379,-0.0013010887327326,2.624819310049226e-06,0.0010949715014036,0.0013024496680817,0.0004572555649519,-0.0009951817670153,-0.0021964224690133,-0.0023052550376186,-0.0009668742837429,0.0014055035224626,0.003706356042634,0.0046033725263108,0.0032361808575833,-0.0001826587129185,-0.0042426584057701,-0.0068869350453294,-0.0064638464812869,-0.0027316094275385,0.0028122861475725,0.0075649651428735,0.0091221973654868,0.0065312000269772,0.0007984218618894,-0.0055920065944443,-0.0098477101181933,-0.0101172375571757,-0.0037797439537167,-1.1806394474012984e-05,0.0059081479927465,0.0088286020788011,0.0123041505835762,0.0070200762819528,-9.751910755693452e-05,-0.0087151578398485,-0.0140962651537081,-0.0123521599541247,-0.0063077452720118,0.0021362337720749,0.0100672143192098,0.0145247571810565,0.0135852683720695,0.0072162137808247,-0.0024617585490482,-0.0117566564497109,-0.0167770387622025,-0.0151197583772766,-0.0071036090781544,0.0041451664733778,0.0139409420268317,0.018100433476729,0.0148263665292559,0.0054991951316087,-0.0059643624121594,-0.0148285700247482,-0.0175305571302491,-0.0131116509788849,-0.003553228444252,0.0070596132370029,0.0141831183327228,0.0146252832570009,0.0126961309731535,0.0007560475905575,-0.0074529046447944,-0.0127245848947845,-0.0100674842595968,-0.0067301376603212,-0.005553855454462,-0.0003148128447105,0.0133227841644835,0.018091029070033,0.0083677089421958,-0.0004478300864909,-0.0081130791111579,-0.0105332067142322,-0.010403756651292,-0.005022600733148,0.0001094507587128,0.0069538690546746,0.0065224797399461,0.0062329900720535,0.0083151958803017,0.0006998688266657,-0.0069126057680806,-0.0089797869706631,-0.0065582201058275,0.0008697615176371,0.0037004879053424,0.0004432964092322,0.0005652345231112,0.003062500321001,0.0006656207851667,0.0003793489342148,0.0034979737677662,0.0024268342162928,0.00060238761363,-0.0014606866979867,-0.0071974513338917,-0.0122049412082644,-0.0007709549551963,0.0012069790788436,0.0069653073810742,0.0111861300409487,0.008560282293107,0.0030972995997019,-0.0027742398760445,-0.0082307174260896,-0.0123946247738012,-0.0144612363889889,-0.0023939111131465,0.010448761130496,0.0147526532221459,0.0130573665034843,0.0059052126348184,-0.007394019048864,-0.0110550470071801,-0.0077508727875064,-0.0047462452317455,-0.0098543693373945,0.0100886011509966,0.0120949153057563,0.0065388416089172,0.00304040017209,-0.001560697516628,-0.0067828220123542,-0.0103140518978454,-0.0052615229310858,0.0040329393612915,0.0053087765473045,0.0026999146922734,0.0015201843311667,0.0106182353883316,0.0009925223040969,-0.0092912836665182,-0.0120129321136832,-0.0088610922887663,0.0034407345075973,0.0126410815073658,0.008983598398005,0.0042241234251742,-0.0005332722016074,-0.0101493206198026,-0.011868358499364,0.0007871884141885,0.0097075526562056,0.0022752030034175,-0.0022410351869358,-0.0050050977930242,-0.0001750446880163,0.0071749204239072,0.0043338985977364,0.0021009348363868,-0.0029729799532775,-0.0091423546704988,-0.0043345815932732,-0.0007375877688511,0.0013129854676654,0.0035327425942862,0.0056367239136876,0.0081573226136032,0.0007703723645901,-0.0020943641430097,-0.0058867860650581,-0.0126379263329952,-0.006751347385402,0.0045440340789201,0.0086793476694764,0.0092040080358422,0.0062204292072076,-0.0008389590331493,-0.0043605596132825,-0.0094941859700781,-0.0039450539997828,-0.0042760435537487,0.000863413605378,0.003791024848511,0.0112233442952986,0.0055056444660945,-0.0003224453736033,-0.0074793664556649,-0.0042207092582332,-0.0026435851097746,-0.0023731986259507,-0.0020059667986472,0.0029817820304766,0.0035892361465108,0.0075575713578707,0.0040670056133467,-2.4995220983339744e-05,-0.0052335828633703,-0.0077235488409255,-0.0040047409505485,-0.001741074030052,-0.0002721999797679,0.002080975623507,0.0046488453679673,0.0083327671673427,0.0115258700473521,0.0029104589904131,-0.0108612870653167,-0.0166005391148011,-0.0129822934895211,-0.0035104506872317,0.0059732765375739,0.0161480110215784,0.0162071714156473,0.0096921851520874,-0.0015152489671378,-0.010896254524799,-0.016623809473536,-0.0158009576128784,-0.004135827984843,0.0053251975702589,0.0123399402881333,0.0130782253084191,0.0112001815165056,0.0068868859807745,-0.005014664773649,-0.0128420350769382,-0.0165762996596792,-0.0094682404818174,-0.0017124918056886,0.005206063779666,0.0104467710154448,0.0150645454584212,0.0079232814168294,0.0011008827503741,-0.0047864387868139,-0.0097841339937549,-0.010823055323161,-0.0063311795311599,0.0014216339038454,5.8201255948045365e-05,0.0027876108047111,0.0075212715982287,0.0088317966485459,0.0063878861467304,0.0012930843769377,-0.0044370624776949,-0.0075022037997695,-0.0067259676413473,-0.0071726962783803,-0.002786318592689,0.0008146390719885,0.001918715780221,0.0071802610379832,0.009273991039093,0.0102411626680561,0.0062649423639336,-0.0016133482534839,-0.0125746784555945,-0.0174863619049129,-0.0159324619184933,-0.0029071468157027,0.0087353185055164,0.0139822206272978,0.018013696358157,0.0139754181142184,0.0034317042839481,-0.0094659448356789,-0.0175022091211526,-0.0200244489029339,-0.0088873056453881,-0.0007914575128676,0.0108138283890824,0.0178256631964638,0.01588359546594,0.0053638191340226,-0.0046725862359052,-0.0113622389163054,-0.0098704911605474,-0.0062532730999698,-0.0039142370591292,-0.0005545587432927,0.0057098411279545,0.0079963137099626,0.0061780497140044,0.0043779112374908,-0.0024509947373116,-0.0047775820754125,-0.0044118095535771,-0.00216071145964,0.0003041132565869,0.0015005668422931,0.0009859789440686,-0.0004920196754495,-0.0015856138884192,-0.0012693471805528,0.0004921528477239,0.0027269802794246,0.0040549329879267,0.0034959645029186,0.0010141223599413,-0.0024463295427974,-0.0053752096407985,-0.0063370565840726,-0.004597910311545,-0.0005338582548374,0.0043525228671583,0.0079154125053338,0.0082789571067131,0.0048346540559647,-0.0012219312973844,-0.0072438640650448,-0.010330622913452,-0.0087864859555486,-0.0030522243093138,0.004396011284797,0.0101403583060215,0.0113971751075795,0.0073651497526679,-0.0002794582440744,-0.0080393459076491,-0.0121991620177764,-0.010656731332736,-0.0040404580783505,0.004531540924565,0.010973044254544,0.0122424732304592,0.007803340918744,-0.0001798595752087,-0.0079438202645586,-0.0119278726738742,-0.0103978623868849,-0.0041716070843758,0.0038235190855459,0.0099164264730825,0.0113617708108448,0.0075778206332743,0.0003997579255593,-0.0067823518914509,-0.0106246709065049,-0.009419034738988,-0.00388499077702,0.0032388304545049,0.0085763622948147,0.0097349236672547,0.0063608207017588,0.0001860909403401,-0.0058618338827781,-0.0090259807323438,-0.0079491681086014,-0.0032407376351449,0.0028564474453082,0.007531690567106,0.0086973660782431,0.0059054166104639,0.0004916164613941,-0.0050790770182413,-0.0083402746856611,-0.0079087328978066,-0.0040490108940671,0.0015063686176045,0.0063596064485498,0.0084861482861125,0.0070582080243996,0.0027364029299587,-0.0026508210599871,-0.0068854669435464,-0.0082754064569184,-0.0063321204442588,-0.0019291205632704,0.0031116639035954,0.0067984852228914,0.0077613088611663,0.0057401764777614,0.0016164021544153,-0.0029803676950294,-0.006313216932602,-0.0071819082650648,-0.0053413423228334,-0.0015598956693727,0.0026873630979015,0.0057781984288266,0.0065614032245261,0.0048051633835434,0.0012861403404971,-0.00253874530566,-0.0051486382598443,-0.0055881784161161,-0.0038275446817041,-0.00071413218204,0.0024236157796058,0.0043270404868388,0.0042995107090029,0.0024750037842791,-0.0002377205966124,-0.0025482778189448,-0.0033875938816491,-0.0024460338280165,-0.0003458062486587,0.0016838175129891,0.002479166934771,0.0016015628525314,-0.0003900300463521,-0.002230334196165,-0.0026733767954534,-0.0012609213958482,0.0013239778587507,0.0035752484492782,0.0040192588522902,0.0021201008488181,-0.0013170737211195,-0.004511073209558,-0.0056560944234799,-0.003939471876219,-5.3440320221148795e-05,0.0041110362311737,0.0064456220647393,0.0057399067054265,0.0023074124629161,-0.0022031685921035,-0.0056646198226035,-0.0065099372621001,-0.0044356590151512,-0.0004777500780157,0.003520632744733,0.0057774388316699,0.0053799472832759,0.0026696630468522,-0.0009715680685719,-0.0038273023941944,-0.0046877501004826,-0.0033962283433785,-0.0008315928924833,0.0016320401672772,0.0028687923898428,0.002538749776406,0.0011513635385506,-0.0003320438498312,-0.0010890155248849,-0.0008743957456741,-8.47330478803218e-05,0.0005502637308845,0.0004555722738811,-0.0004038837976164,-0.0014750725640023,-0.0019542030972424,-0.0013114321532476,0.0003337060994324,0.0022294463484684,0.0033844552000465,0.0030943103436143,0.0013150515237676,-0.0012872172427355,-0.0036127909593248,-0.0045987158037566,-0.0036886590513901,-0.0011174838511782,,,
0.0008537870574749,0.0033405719680213,0.004963481250429,0.0050478467468218,0.0032671628587828,-4.5427439674820034e-05,-0.0037801327778425,-0.0063590345283689,-0.006451380021277,-0.0037458796776043,0.000716810997623,0.0049490094583157,0.0070020217256098,0.0059786876399939,0.0024762686186103,-0.0017811122513289,-0.0048675216872769,-0.0055914409157961,-0.00396085522765,-0.0010146995396365,0.0017983371290801,0.0033284817744137,0.0031817276032929,0.0017636100321928,-3.365472341752591e-05,-0.0012995390105819,-0.0015083672655199,-0.000711483740499,0.0005245952565534,0.0013918191153608,0.001227705761363,-0.0001181335695964,-0.0020971761420552,-0.0036041554939265,-0.0034890732337671,-0.0012574663624624,0.0024324745546615,0.0058642903779749,0.007045513101381,0.0048400626326403,-0.0001899893086592,-0.0058179717842101,-0.0091914434614556,-0.008379474374838,-0.0035391822297803,0.0030389947713986,0.008107256105946,0.0092157681142467,0.0060316121121401,0.0004476835019627,-0.0045668978590795,-0.0066618688389267,-0.0053215523401557,-0.0019159098674724,0.0013379994276104,0.0027642301675465,0.0020938411001641,0.000372736790266,-0.0008854120725666,-0.000696933345133,0.0008264342302296,0.0026023595238822,0.0032608113157977,0.0019865204164784,-0.0009336490210839,-0.0041608170461811,-0.0059599845859184,-0.0051472925563811,-0.0018143361747086,0.0026145362781671,0.006073049325929,0.0069159703318305,0.0047449113275102,0.0005544039039288,-0.0013295425240805,-0.004178962997242,-0.0071261595963167,-0.0053424196112762,-0.0021997486982818,0.0011918314634627,0.003836073896044,0.0050829164809946,0.0047541878255719,0.0031313306405021,0.0007909451454842,-0.0016348268333638,-0.0036241060334217,-0.004773243739319,-0.0047349202009112,-0.0032715659917229,-0.0004930370033391,0.0029001931860012,0.0081463571459445,0.0063393338893415,0.0041145924676155,-0.0007453910554132,-0.0067181166090347,-0.0067089299158359,-0.0061484511140746,-0.0021337937742156,0.0020328445821439,0.0042497990215749,0.009581461888877,0.0072194402332902,-0.0004452482727932,-0.0072717341909334,-0.0087171726410159,-0.003048612023608,0.0010742909364547,0.0008760901667486,0.0016135298946738,0.0034674398026699,0.0047670555418046,0.002413542517413,-0.0003809200544608,-0.001945172110892,-0.0025861379023089,-0.007673906488735,-0.0046268074313238,0.0011446171380011,0.0053961561637056,0.0062818192174946,0.0052472546622387,0.0023056362763908,-0.0038110264921264,-0.0066317475567851,-0.0051001801035821,-0.0020268175439921,0.0010478066057529,0.004688394008931,0.0051607183267321,0.0031153011593821,-0.0021698509006307,-0.0035271605274725,-0.0068060537263189,-0.0003206214323424,0.0047055897728336,0.0059852925358737,0.0023479654713079,-0.0030046700389061,-0.003174350700725,-0.0052776234453781,-0.0010668885481676,0.0007906876140353,0.0019356793398616,0.0039831803170357,0.0056945773735048,0.0014423219370251,-0.0027842664133501,-0.0056212857655874,-0.0054220041084096,-0.003489550950349,0.0017739964747222,0.0068499365571348,0.0070173469916693,0.0022861504966405,-0.0028051695531254,-0.0052576422947398,-0.0047149253494069,-0.0018980050438387,7.09568567568545e-05,0.0018562769167365,0.0053367748533109,0.0035079683224563,0.0026233255318749,-0.0016717884211208,-0.0050058463826982,-0.0050444781495823,-0.0022956994618536,0.0016944180202564,0.0031728237877396,0.0025139638181747,0.0018217323908406,-0.0001655651857001,-0.0031673812398418,0.004316382987605,0.0029947406453377,-0.0029800176751819,-0.0061191385257958,-0.0070232472711092,0.0005086404508322,0.0060485240974497,0.0044483922515254,0.0025755541415663,0.0022684832528779,0.0001805683837792,-0.0039647093506871,-0.0027030389530883,-0.0021250844096481,-0.0005265047203441,-0.0015489187830127,-0.0027630972880919,0.0020565015396617,0.0058463748853,0.0045555869734719,0.0022968779613069,1.4849963894012414e-05,-0.002682461676504,-0.0058865601506554,-0.0054223283894169,-0.0038906321876549,0.0019444745989252,0.0044877080434248,0.0105266930884655,0.0030339076534645,-0.006260199768172,-0.000547628271327,-0.0025133875144982,-3.5681581643844457e-05,-0.0020099925876895,-0.008082109853368,-0.0013064511288652,0.0068776554311498,0.0123962858271093,0.0099974283268798,-0.0081986128781513,-0.0136459819273922,-0.0074272860933246,0.0001424814043281,0.0039406781941926,0.0103681594366438,0.0047468273983401,-0.0018992183951855,-0.0091527978412604,-0.0023174287947475,0.00941784112854,0.0051861690492988,-0.0046011496003746,-0.0113926824436819,-0.0067178478529619,0.0008631732376149,0.0101536975231791,0.0086165246925787,0.0064700688398871,8.043289223494733e-06,-0.0098272261985472,-0.0007256563436854,-0.0057253625073448,-0.0108992955080032,0.0006374134292085,0.0067583050467103,0.0051992522421011,0.0082836752258685,0.0095449281827373,0.0042007901564159,-0.0124095621545813,-0.0148638748184446,-0.0080747744159531,-0.0002193050092532,0.0021997216032065,0.0054113058100817,0.0161601290754115,0.0125813754253537,-0.0020833487111805,-0.0122820422457393,-0.0140521388382998,-0.0053284238512764,0.0008646498268078,0.0043175300490579,0.0049157754607821,0.0035572316226586,0.0038436166716584,0.0066276487229746,-0.0016759524449633,-0.0030497726853063,-0.0081733384251149,-0.0086231838252967,0.0017416831167428,0.0022112986816273,0.0019481716838687,-0.0003874049868813,0.0024434461879127,0.0129330642051471,0.0063802438972009,-0.0046218929990023,-0.013096670053916,-0.0054608974785222,-0.0034763193533438,-0.0009605957627772,-0.0020753168161108,0.0037447891993025,0.0103377676096565,0.0097882340627161,0.0043121026666132,0.0012562832344928,-0.0081245031227057,-0.0125487421868732,-0.0078749404092829,-0.007314835478532,0.00331308709002,0.0098264417772208,0.0116800603037011,0.0065107725196073,-0.0041313311725879,-0.0008629318489629,0.001150762353948,-0.0031297941876516,-0.009032116338382,-0.0075601091283139,-0.0020978275814787,0.0028852138367209,0.0059121954419783,0.007508434672566,0.0080367120510023,0.0022735089433552,-0.0048966707567079,-0.0087543305087481,-0.0055922596559471,0.000221714001173,0.0012153702292409,0.0014065094301835,0.0021387562428657,-0.00019860270573,0.0006548695386098,0.0020053439260552,0.0015895738280549,0.0001251905720344,0.0010119330799867,-0.0025265820583515,-0.0026864728163358,-0.0020624470969894,-0.0009597396258824,0.000279779262772,0.0013616549830543,0.0020384134298871,0.0021007712643803,0.0014501324328496,0.0002347274419783,-0.0010950671665821,-0.0019470988141506,-0.0019210103483082,-0.0010832182479403,5.292816496081309e-05,0.0008635790776707,0.001030630766092,0.0007230855102941,0.0004040396004674,0.0004148138677619,0.0006661382479506,0.0006929805892192,5.5581315631592005e-05,-0.0012075920127256,-0.0024438411584138,-0.0027335819242681,-0.0015285401092771,0.0008657268175108,0.0033411308395133,0.0045816042049782,0.0038170270591334,0.0012471673760777,-0.0020937730650281,-0.0048682245208718,-0.0059981820806152,-0.005002916274852,-0.0020929284154401,0.0018735138941336,0.0055310458960397,0.0098115065230977,0.0084665814054486,0.0061263300748398,-0.0032077409745145,-0.0122315242193952,-0.015183736650733,-0.0123234305664954,-0.0037912314710526,0.0074069156957955,0.0164532380023655,0.0189506630644786,0.0132104928931226,0.0013299232132498,-0.0116133298347466,-0.0199035846084858,-0.0198699091341962,-0.0115426125838561,0.0014800820609955,0.0137496992804975,0.0203331780108442,0.0187566077574931,0.0098306589277921,-0.0028041391809322,-0.0141427358530091,-0.019748343566014,-0.0174708595046196,-0.0083040661838464,0.0039926282253276,0.0144092309662118,0.0187482866152437,0.0153764176475456,0.0058994189496502,-0.0055609769962134,-0.0141889182696317,-0.0165700658706278,-0.0120938380010018,-0.0030485566615505,0.0065486959113775,0.0127679828095619,0.0133875216642735,0.0086519798382323,0.0009351244897683,-0.0064355112677565,-0.0106082688887026,-0.0102796110329115,-0.0060309004516073,0.0001082723876503,0.0056091101320659,0.0084733133828801,0.007922139486727,0.0045176379597599,-0.0002318391213538,-0.0045277674150501,-0.0069138511469675,-0.0066968314278765,-0.004089491271063,-8.959057188391218e-05,0.0038542964846556,0.0063143930029166,0.0063800882849781,0.0040197394607635,0.0001376237932512,-0.0037544707851072,-0.0061430586978121,-0.0061247457382118,-0.0037519063656631,9.652367691013328e-06,0.0036677734420997,0.0057919551796754,0.0055944621173047,0.0032607971589106,-0.0001496856984206,-0.003209855291535,-0.0047810813691979,-0.0044750409994532,-0.002703835020427,-0.0003483805955626,0.0017221404739647,0.0029992341074335,0.0033901257701317,0.0030237375247831,0.0020185716299396,0.0004295451208981,-0.0015811436201274,-0.0035282836328157,-0.0046095869691031,-0.0040558796581201,-0.0016644548303578,0.0018522624412157,0.0050205342914952,0.0062730931211772,0.0047848712082636,0.0009909614064878,-0.0035173990190666,-0.0066770700744708,-0.0069053250256477,-0.0039056597137309,0.0010580860075824,0.0056401343133449,0.0100056868536271,0.0055130352241308,0.000392502218656,-0.0054518441411581,-0.0090386568976872,-0.0083188554129186,-0.0033004605150581,0.0038181170846841,0.0096139295944229,0.0110777872671401,0.0071440324248988,-0.0006568249969849,-0.0087909319276357,-0.0133294343853782,-0.0118407089210963,-0.0046601636556023,0.0051279065740309,0.0130679978017288,0.0154392903169086,0.0110353143401715,0.0017178784648572,-0.0084889449996621,-0.0152454501137465,-0.0157657634698731,-0.0098995435328456,-6.522374163747043e-05,0.0098166145673535,0.0158907087558669,0.0158254532617925,0.009652870083555,-0.0002769283431292,-0.0101871024128305,-0.016285006212841,-0.016188085082418,-0.0098492343918688,0.0003722328424322,0.0105567459821419,0.0167112385638252,0.0163498248544259,0.0095418395688738,-0.0010317878371016,-0.0111037827922858,-0.016571751445227,-0.015262792641683,-0.0079060487160785,0.0022028522947209,0.0107454346298902,0.0143811505953358,0.0121745142295365,0.0057400481972727,-0.0018507630230977,-0.0076658448876105,-0.0100978765053005,-0.0091245465239238,-0.0057742880755876,-0.0013540195630577,0.0030403050799619,0.0065810655979217,0.0085531942268821,0.0083118272349833,,,,
0.0004226357234806,0.0019255374959933,0.0024429255800695,0.0019293456106023,0.0007754837529733,-0.0004376927641265,-0.0012150961784433,-0.0013522815235257,-0.0009974908528151,-0.0005297425554214,-0.0002899032891946,-0.000318942668209,-0.0003067446064763,0.0001614373115395,0.001204912465686,0.0023974296561631,0.0029051312118133,0.0019892766915588,-0.0004196513521903,-0.003460305160933,-0.0056237787111804,-0.0055019851337893,-0.0026227650955849,0.0021076022400806,0.0066592464122441,0.0087750431920929,0.0071007069280078,0.0019781844176059,-0.0045483723281071,-0.0095903159796966,-0.0107558035822424,-0.0073155594521816,-0.0006061085855293,0.0065372076797781,0.0110525460442423,0.0110305523083525,0.006552167223942,-0.0004038104280312,-0.0069171172122855,-0.0104516608290348,-0.0098921380547274,-0.0058342302631245,-0.0001020973844687,0.0051516489892267,0.0082843373039754,0.0086031561495193,0.0063441061193753,0.0023660860876747,-0.0021887247869392,-0.0061254668615452,-0.0083525694471756,-0.0080833128066557,-0.0051296922073482,-0.0001709659082923,0.0052349762346737,0.0090752932890742,0.0096814683648282,0.0065557392739406,0.0007577657014131,-0.0054301986917344,-0.0094550133609661,-0.0096258005759912,-0.0058990688656192,6.421050418418997e-05,0.0056362860996439,0.0084448850268223,0.0074882109509539,0.0035571164794006,-0.0012642643798177,-0.004727956413972,-0.0055398879226346,-0.0038687991746877,-0.001038103562227,0.001339269867592,0.0022498837161919,0.0017072565795205,0.0005435611429852,-0.0002301546545228,-7.221241956163076e-05,0.0008031680161598,0.0016191973723535,0.0015542223944822,0.0002784762758687,-0.0017809278028398,-0.0035963516119036,-0.004058354993346,-0.0025994297089925,0.0004158268717626,0.0037661579589484,0.0059024732929051,0.0056800307184825,0.002940184932696,-0.0013429747924431,-0.0054363017655069,-0.0075848043526814,-0.0067786991049967,-0.0031992514609138,0.0018462586487277,0.0064446678565397,0.0088124087514901,0.0079602146482389,0.0040626544915836,-0.0015811990558863,-0.0069787735067035,-0.0101232971443467,-0.0097015564440562,-0.0056074531116672,0.0009129618135549,0.0075812201371968,0.0118413792714873,0.0118373063009401,0.0072333339757992,-0.0005088834815245,-0.0085706164974119,-0.013788857928063,-0.0138711335278489,-0.0083823028709333,0.0008780407659631,0.0103568010757139,0.0160611524352554,0.0152756665151655,0.0079287405976992,-0.0031241100666008,-0.0131802175894018,-0.0177367408125935,-0.0145810516566203,-0.0049212072981914,0.0070300606791809,0.015895191605581,0.0175957598456703,0.0112985741805,-0.0001201030270817,-0.0113802079890087,-0.0172811535207592,-0.0151549834714556,-0.0060917250531039,0.0056299867964711,0.0145867051055384,0.0167293298441572,0.0112044780792566,0.0006670470030304,-0.0100163128061705,-0.0160334377001005,-0.0147920695568294,-0.0069993053357296,0.003774032773724,0.0127498501284296,0.0160171202968143,0.0121365802954733,0.0026748616133687,-0.008463932662546,-0.0117249471230594,-0.0109762046535219,-0.0105758287040017,-0.0031470260455894,0.0071406326313474,0.0136003473380296,0.0137690887080017,0.0076813602153263,-0.002365919184453,-0.0103410262796799,-0.0129437747900293,-0.0081162301005041,-0.000595203266726,0.0053350958735343,0.0069705937940967,0.0068818119472345,0.0016867176666504,-0.0008929747142784,-0.0017885595707502,-0.0023151186427942,-0.0022116251885278,-0.0021277194340462,-0.0029555323516492,-0.0001456647344219,0.0019037831909764,0.0041742138367826,0.004897471212225,0.0017328326502595,-0.0013596218461514,-0.0049860612430393,-0.0045999309777722,-0.0041809104554872,-0.0003671119613701,0.0023523972702584,0.0055807248279605,0.0092118381267042,0.0035845570740237,0.002022912270666,-0.0066014433801765,-0.0160162621391413,-0.0068485553103144,-0.0040994593491678,0.0030237573266359,0.0113522944660611,0.0153335262783,0.0138549262402244,0.0012041355864959,-0.0090809338419491,-0.0166151518599088,-0.0147322201385846,-0.0137157630856768,-0.0016276524721063,0.009630725353828,0.0231175548800624,0.0216792706588612,0.0114871576050702,-0.0022987197401998,-0.0188694289874788,-0.025579633481952,-0.0196356586801442,-0.0067673875115261,0.0114870662638808,0.0226102293888449,0.0194850060556003,0.007701133521535,0.0012927201049726,-0.0046779360715056,-0.0146554213078464,-0.0173920511032584,-0.0074051104612527,-0.0013206998199397,0.0015646925791081,0.0119678162833785,0.0121972853641361,0.0067453876002265,0.0067544641379847,-0.0018441673695256,-0.0061931783523583,-0.0069041391219112,-0.0133022029889641,-0.0121340333759155,-0.0050138485836339,0.0113700070782677,0.0168714392512806,0.0138442045837868,0.0073518376446094,-0.0045664006794543,-0.0062583651431685,-0.0114472651590257,-0.0167305687493846,-0.0051700222419108,0.0030308216162018,0.0087829910507038,0.0102176329204513,0.0106402677590305,0.0072534878487846,0.0012934891530376,-0.0094477684684598,-0.0127350800472919,-0.0115863973162836,-0.0061329064997592,0.0042144502604913,0.009227526222905,0.0084422445498803,0.0071602429253807,0.0054160392490895,-0.0003872354049581,-0.0027065669700599,-0.0109478781293675,-0.0081418153305528,-0.0074891700969941,0.0007576053524138,0.002552445263062,0.0070221453131149,0.0084592143817193,0.0096116847613204,0.0055476066277998,-0.0015940009350825,-0.0083810960306321,-0.013926619769415,-0.0141897848002582,-0.0046628715631771,0.0067228277226869,0.0112032494960266,0.0124920561661065,0.0144965084663671,0.004886418218091,-0.007024865807722,-0.016499448150609,-0.0166310844547096,-0.013218449413662,0.0020427255341126,0.0171250801230666,0.0192421018953286,0.0106940993067427,-0.0011779504451789,-0.0121486444763861,-0.0137165111157309,-0.006971427644918,-0.0004777052009503,0.0046593102767426,0.0071872908419124,0.0072698093129567,0.0023270445335699,-0.0003743422633292,-0.0027671127750484,-0.0069191680650226,-0.0072151909206132,-0.0021670255648682,0.003124448453463,0.0056926043436994,0.0109652408991665,0.0041734822132935,-0.0050662620009936,-0.0057943120919818,-0.0067058714897722,-0.0062102607901339,0.0014556325525523,0.0053628172687021,0.0065580419836946,0.0030545304428606,0.0006032879070941,-0.0028153590187776,-0.0043449953363921,-0.0030188587894032,-0.0002018146555111,0.001585857437098,0.0054799933873204,0.0044556447276123,-0.0019663832422926,-0.0085848636478593,-0.0065713758206161,-0.001301180431465,0.0048472625129169,0.0087509947122357,0.0082290347501349,0.0033158736112432,-0.0036338106177445,-0.0091065369596996,-0.0102503234722816,-0.0063771183918654,0.0006638636554919,0.0074347885239722,0.0106533285745639,0.008809005859443,0.002855541355692,-0.0043051937251471,-0.0092499926608978,-0.0096802199556987,-0.0055121693719627,0.0011115143340528,0.0069055004333374,0.0090879031990213,0.0067539624393302,0.0012726276106795,-0.0044881972603523,-0.0076808252057265,-0.0069196263460449,-0.0028810270285615,0.0022118028826192,0.0058519289087001,0.0065015240039386,0.0041790602605928,0.0002055995159262,-0.0035795945199924,-0.0056446133689759,-0.0052880372559751,-0.0027740981439671,0.0008443002739742,0.0041149155517678,0.0057028577863431,0.0049110875752044,0.0020091680352202,-0.0018251495884932,-0.0049985050612764,-0.0062242313698465,-0.0026072518822681,0.0002013341901089,0.0008743190937625,0.0031370997371779,0.0038838823567127,0.0032598532016482,0.0017876760412775,-3.741142418479262e-05,-0.0018779513372002,-0.0034249716402767,-0.0042474910025559,-0.0038480026472988,-0.0019541536958324,0.0011369976272353,0.004431840273762,0.0065085837398833,0.0061396637991097,0.0029952606532677,-0.0019592748489037,-0.0066767129443745,-0.0088802458852348,-0.0072148608811481,-0.0020958728782882,0.0042920625770362,0.0089678037372063,0.0096443275883291,0.005929969208084,-0.0004388199986501,-0.0064689845670725,-0.0094064072515258,-0.0080568811248385,-0.0032710282621128,0.0025928366141722,0.0068826136923939,0.0078910762933501,0.0055230062383132,0.001145061774579,-0.0032008738684467,-0.0057658374597664,-0.0057788871626122,-0.0035985886666525,-0.000369840412804,0.0025664985511036,0.004214336693648,0.0042082067709152,0.002798182816985,0.0006290771862728,-0.0015349522480369,-0.0030331825711612,-0.0034561181447518,-0.0027346199008993,-0.0011579172787773,0.0007172112561646,0.0022614102158434,0.0029940181004949,0.0027328559874544,0.0016235696342899,6.067829431220438e-05,-0.0014559284832443,-0.0024780293909511,-0.0027320163808962,-0.0021751227589034,-0.0009801445305658,0.0005272631068849,0.0019448073736283,0.0028672876825533,0.0029673926382066,0.0020946550204591,0.0003762355330383,-0.0017291426767791,-0.0034884364238332,-0.004110726559712,-0.0031005698526883,-0.0006069454020526,0.0024610696303648,0.0047256413392339,0.0049908752692743,0.0029373051986511,-0.0005751151559891,-0.003865410234509,-0.0053166150735301,-0.0042697232852492,-0.0013600768645416,0.0019061579477367,0.0040273745212412,0.0042587535966857,0.0028210508590529,0.0005630376421163,-0.0015830080260622,-0.0029805246598468,-0.003364958586045,-0.0027388700210591,-0.0012830672721465,0.0006401040699541,0.0024781386114646,0.0036001238985867,0.0035385811726015,0.0022243035679382,5.163740539062692e-05,-0.0022681011080003,-0.0039654584238709,-0.0044503761904705,-0.0034668238625761,-0.0011759848107288,0.0018207496783131,0.0045593734707258,0.0059573486334816,0.0052268347822527,0.0023172106107297,-0.0018712701589354,-0.0057193381226871,-0.0075491252244663,-0.0064146844106008,-0.0026077527916266,0.0023998872313805,0.0065665476977698,0.0081625231291999,0.0065198480191154,0.0023157294685356,-0.0027241715842732,-0.00656113640931,-0.007700153804026,-0.005804352076927,-0.0017952662104333,0.0026090723848907,0.0056840437443148,0.0064084129422582,0.0047623891794681,0.0015619927809204,-0.0019616083023073,-0.0045851944638674,-0.0054159709399837,-0.0041453988938283,-0.0012285854367869,0.0021533896166005,0.0045006826166582,0.0046983854878439,0.0026512005389002,-0.0005825710611889,-0.0033153414802567,-0.004142558895428,-0.0027092364469813,0.0001156081092646,0.0027396773469714,0.0037221897199498,0.0025435206738223,-0.0001250101608459,-0.0027837386799491,-0.0039175231804537,-0.0028368199225214,-8.397183723308813e-05,0.0028427006903676,0.0043132598742488
0.0200067852484124,0.0144908016395988,0.0028752063787101,-0.0101972291502727,-0.0194516501000049,-0.0186217301352467,-0.0144678924531522,-0.0020993378077941,0.0110454709037744,0.0196548673299724,0.0202002564763461,0.0124643544843759,-0.0002737717961443,-0.0126062630955003,-0.0193675094259564,-0.0179108571553773,-0.0092086762397359,0.0027198766152101,0.0127234802945123,0.0168241457560458,0.0138407965692026,0.0056530377582463,-0.0038944388177516,-0.0108269072419118,-0.0127200964252032,-0.0095030266383807,-0.003150036184336,0.0034362931029221,0.0077374852946076,0.0085389499756621,0.0061534316190559,0.0020001824763576,-0.0021480302338581,-0.0048670000815602,-0.0054751489023833,-0.0040863851447626,-0.0014417066334123,0.0013692434989529,0.003266026171531,0.0035770648582556,0.0023349243313426,0.0002709875026679,-0.0015511247976891,-0.0022832874481367,-0.0017067128723275,-0.0002870658599915,0.0011218499458856,0.0017314976984295,0.0012023038807569,-0.0001899076522964,-0.0016631847003104,-0.0023001895312424,-0.0015592965072101,0.00033111476325,0.002384691620468,0.0033660810099469,0.0025385124406031,0.000172403413094,-0.0025404794548995,-0.0041363919852256,-0.003700483288594,-0.0013746935281102,0.0017238359160989,0.004098406116198,0.004629639727678,0.0030889175693948,0.0001814690394971,-0.0028355375923154,-0.004721132927932,-0.0047373764291095,-0.0028850811440097,0.0001471807118363,0.0032520801363765,0.0052769273950865,0.0053993275446947,0.0034296185956082,-4.0901999273948154e-05,-0.0037499195379216,-0.0061924487851533,-0.0062654719563818,-0.0038304925717549,0.0001511223969643,0.004046917108766,0.0063309461671935,0.0062615827882999,0.0040868499207814,0.0007376267958812,-0.0026972959400212,-0.005340792164084,-0.0065884514792975,-0.0060225295859149,-0.0034619727563572,0.0007554675893741,0.0054925458539548,0.0089260134227636,0.0092458437720127,0.0056770815308439,-0.0008011113716974,-0.0076092202159496,-0.0116675296674774,-0.0109124564551627,-0.0054099404411079,0.0025551192661628,0.009498446816315,0.0123736759965842,0.0100056747760805,0.0035959879231712,-0.0039306361526109,-0.009359267948704,-0.010642299887117,-0.0076773166721039,-0.0021143678265283,0.0035801303621933,0.0072501177474997,0.0078376656431223,0.0055872961459518,0.00173267127026,-0.0021060142866828,-0.0045686427604417,-0.0050347406857501,-0.0037689014484698,-0.0016655787375117,0.0002840967495101,0.0014998747896907,0.001990625369118,0.0021263649377162,0.0022114090833075,0.0021875977121383,0.0016844751142204,0.0003803296249318,-0.0015934267022082,-0.0035279740386183,-0.0044375285498521,-0.0036273703895455,-0.001171311138738,0.0020122139110289,0.0045508560172261,0.0052760021153064,0.0038103087474919,0.0007829920145554,-0.0024512912803448,-0.0044652922590061,-0.0044557188732349,-0.0026186528204906,-7.307315955228975e-06,0.0020414181105178,0.0025962901403994,0.0015808864781739,0.0022575258344704,0.0031185706306191,-0.0023354432893789,-0.0019993091636829,-0.0015081131215461,-0.0017857697251134,-0.000981867452251,0.000751376015071,-0.0008847129486159,0.0025563116184404,0.0024638709422349,-0.0006795797756381,0.0006793681169023,-0.0013458828078746,-0.00013775921356,-0.0014861422847711,0.0014532788007793,-0.0013506966149359,-4.947347360810796e-05,0.0006609024637479,0.0009122506194455,0.0004943203083889,-0.0012586702916352,-0.0052261794817369,0.0003118363720139,0.0061505629535974,0.00637924834779,0.0004708221801153,-0.0023755186436928,-0.005974583667982,-0.00835227809339,-0.0037649850902624,0.0053447988806494,0.0067336608418524,0.0060497846031042,0.0056737554465768,-0.0005516728476215,-0.00782090510115,-0.0059818024132811,-0.0052089130746046,-0.0001246248748218,0.0035318098467622,0.0011113655675977,0.004491960872456,0.0084119256663668,0.0035017529834282,-0.0044150798246269,-0.0203997777588614,-0.0026726931439244,0.0146114412108723,0.0033429852586724,0.00218725011735,0.0048443623004882,-0.0081321926072426,-0.0102733633836523,-0.000518765895797,0.0024583415698288,0.004890655767676,0.0069520985506075,0.0014682059932257,0.0035252833531521,-0.007780345021154,-0.0053026172390951,-0.004096610020904,0.001091257116647,-0.003859690825687,0.0059265293598066,0.0093986043259003,0.0019364221871874,-0.0041807170359406,-0.0025989881933574,-0.0010415243291801,-0.001477164862099,0.0036933797119919,-0.0018281085609244,-0.0055683052570323,-0.0006750931999179,0.0032902308298973,0.0033307062933839,0.0032571977024907,-0.0047546530167888,-0.0028117613342247,0.0117386935847256,0.0030519324885389,-0.0110951938667396,-0.0038570792399714,-0.0045691875019117,0.0014865088010727,0.0013622398585259,0.0008332116976662,0.0094598103617581,0.003490950150596,0.0008877208333475,-0.0044225092546653,-0.006349784344745,-0.0031575860435453,0.0009597702606382,-0.0009508250648443,0.0009952173946037,0.0007416502926929,0.0019212009038745,0.0023179494439277,0.0042057878575694,0.0020455209495903,-0.0013294247645187,-0.0030577888935826,-0.0061437628547332,-0.0078138708708702,0.0002387614417585,0.0056637259884409,0.0057970338918506,0.0031615609092191,0.004976163154387,0.0007525080288694,-0.0042699858440319,-0.0074518976043579,-0.0026003289658726,-0.0044381870503733,-0.0021091266883956,0.005321278272928,0.0052164293638932,0.0100679383428583,0.0032345965566429,-0.0031917244292122,-0.0094453299568916,-0.0060253340107047,0.0001034228001765,0.0004382218011909,0.000340324251253,-0.0003892026090537,0.0017565681598329,0.0075177214385737,0.005674493116535,0.0033135421817444,-0.0034044518849585,-0.009727509441611,-0.0085239773096919,-0.0061957930910171,-0.0015611933582328,0.010274087680852,0.0119457433021183,0.011856939932225,-0.0014194588558562,-0.005748127860797,-0.0102492013042924,-0.0105821707197404,-0.006581386442656,0.0020495936906252,0.0075726656146925,0.0097777602182571,0.0127652971029828,0.0049313893677279,-0.0067735592503053,-0.0124298071084003,-0.0127211574654291,-0.0044840725609229,0.0015036012311812,0.0078094230739755,0.0092345193040814,0.0089621927279519,0.0044226270837293,-0.002638645345954,-0.0068903897555528,-0.0106307224138624,-0.0099469928158313,-0.0028510763285786,0.0063954314069341,0.0100309547404453,0.0108741652904276,0.005345990301143,-0.0008579753847,-0.0082938019611805,-0.0093231220272438,-0.0070690236890633,-0.0032981141424463,0.0007756822216146,0.0074677134202064,0.0091634843804251,0.0067008938221844,0.0048518706122924,-0.0015823206813057,-0.0071569771187804,-0.0116289786625335,-0.0116991090554263,-0.0058221662242585,0.0058621622949446,0.0155664704612781,0.0162753463881613,0.0074236201436127,-0.0022715434509136,-0.009990458332438,-0.0122392319025889,-0.0136613663285627,-0.0092178028919388,0.0014472023533599,0.0117405579876895,0.0173070127060012,0.0154488576131864,0.0065730737184096,-0.00318076403743,-0.0159378560865315,-0.019564798527298,-0.0148618231394138,-0.0038855140611192,0.0085080891609947,0.0169539558088549,0.0180471102127106,0.011757167551081,0.0011730096818322,-0.009137142506758,-0.0152104969755961,-0.0152030639935863,-0.0097676504927405,-0.0013737881344982,0.0068941399737438,0.0124384067740083,0.0137722355917498,0.0106598499871634,0.0040065753892727,-0.0043045937655641,-0.0116752360643803,-0.015370096910296,-0.0134931521294862,-0.0060456730905407,0.0045696916885109,0.0141419693490331,0.0183401340925543,0.0148050969220832,0.0045645127905436,-0.0081067122284145,-0.0175059448581699,-0.0192083177504675,-0.0122978686146223,7.884074665438884e-05,0.0121901070210568,0.018497004802793,0.0163067971810547,0.0069664019373254,-0.0049423908366045,-0.0139119722262903,-0.0161180660070021,-0.0110665795576767,-0.0015754736806385,0.0077661702667895,0.0128230190811184,0.0117452248517165,0.0056075441054139,-0.0023320795548891,-0.0083050344547072,-0.0098071566201929,-0.0066597091360616,-0.0008996900871154,0.0043995159246972,0.0067451370513963,0.0054198838238143,0.0016479599906436,-0.0022667085781413,-0.0042599457242832,-0.0035362617227278,-0.0008220499816421,0.0021694057521862,0.0036919507713609,0.0028492065144436,2.8707269754821485e-05,-0.0032725843227117,-0.0051641879693207,-0.0043344454853432,-0.0008282504398171,0.0038125603306245,0.0072159976262176,0.0073830461893568,0.003810341306648,-0.0020999061696947,-0.0076215868812447,-0.010019902325723,-0.007929332803795,-0.002081247749616,0.0049873233963834,0.0100961595881711,0.0108971508932032,0.0069722610329788,4.225960430029505e-05,-0.0068210953859433,-0.0106226800047715,-0.0098334256523812,-0.0050525261834416,0.0013945870511583,0.0066850303105367,0.0088505468299844,0.0075185934896083,0.0037474483819839,-0.0007586546167633,-0.0044697247766268,-0.0064534663282095,-0.0063788494349064,-0.0043761522498195,-0.0009935227866329,0.0027838491385651,0.0056793692887976,0.0065590282239611,0.0049802815089222,0.0014983202959001,-0.0025121458278246,-0.005450346766563,-0.0061831891252112,-0.0045038343866627,-0.0011774091661412,0.0024098999615613,0.0048376190664697,0.0052310314921924,0.0035890002413083,0.0007204847519527,-0.0021598563041553,-0.0039602867191813,-0.0041128306626098,-0.0027056192609261,-0.0003694894100238,0.001970471609667,0.003395356103241,0.0033140015758249,0.0017430106416414,-0.0006062796597085,-0.0025813098525278,-0.0031480678559209,-0.0019776015502125,0.000309903417355,0.0024386592624749,0.0031733148256784,0.0020238466975773,-0.0004500619920967,-0.0029139647097184,-0.0039644128195649,-0.0028863027843495,-6.481768713681677e-05,0.0031614265934345,0.0051403034630041,0.0047317165019693,0.0019142929059742,-0.0021362913958746,-0.0055568948629475,-0.006665335122148,-0.0047756154346891,-0.0005665839959175,0.0041772223607253,0.00733951297603,0.0074175723631122,0.0042242847494966,-0.0009673595539023,-0.0059255790555754,-0.008423908179143,-0.0072665134826383,-0.0029008313474711,0.0027220959676893,0.0070450949939341,0.0081522638748348,0.005705683601958,0.0010418942449853,-0.0036090580449412,-0.0062922747952488,-0.0062066340895397,-0.0038647026447848,-0.0005729032504308,0.0023537719677236,0.0041440985742175,0.0046254966342693,0.0039162569663826,0.0021581544152028,-0.0004172796010032,,,,
-0.005013301074005,0.0018315085511698,0.0078992811433315,0.0104842678871959,0.0084911580289212,0.0028870482701556,-0.0038328583832535,-0.0088185400547462,-0.0100727712141026,-0.0071845461327243,-0.001380594982363,0.0050188688425406,0.0094850389488194,0.0102049433014122,0.0067660797613505,0.0003783915159626,-0.0064861397937883,-0.010985571288475,-0.0110627285789749,-0.0064095886309457,0.0012345910777448,0.0086971935508513,0.0127139158057861,0.0114064106792514,0.0051796938791065,-0.0034134302727776,-0.01078062860926,-0.0138383764099864,-0.0088128755539161,-0.0042747126661324,0.0043288031116217,0.0109629526130679,0.0129973737189972,0.0097384599449047,0.0026357250991738,-0.0053706662727177,-0.0110709803903019,-0.0122666341879843,-0.0086050643912972,-0.0016649702173799,0.0057172041906783,0.010607361060505,0.011158318891711,0.007328730224651,0.0008284144966116,-0.0056685574016694,-0.00965623902897,-0.0097555291063176,-0.0061348711745544,-0.0003299956216839,0.0053742434390572,0.0087741617469921,0.0085676550649904,0.0049056291576866,-0.0006039156236853,-0.0055575953274429,-0.0078487944465967,-0.0066476132855103,-0.0027431777963446,0.001917509167749,0.0052160197537489,0.0058503442484762,0.0038546215057817,0.0004542080807924,-0.0026139088140866,-0.0039580353568587,-0.0031606120748975,-0.0009014558790289,0.0014599624316394,0.0026222884921893,0.0020239865234641,0.0001192919841023,-0.0018958813750262,-0.0027627180462041,-0.0018740300419678,0.0003709556188279,0.0027708602706405,0.0039738038702678,0.003215550405975,0.0007354774599512,-0.0023535768537619,-0.0046465203991174,-0.0051247352384913,-0.0035607069290664,-0.0005081443918137,0.0029868688899773,0.0057313188318628,0.0066859651153395,0.005253129276897,0.0015647762375104,-0.0033487418785321,-0.0077105927643351,-0.0095767875416401,-0.0076980007852109,-0.0022719791885931,0.0048562081726091,0.0107736801039273,0.0127052421792012,0.0093373227380733,0.0016166502955784,-0.0074368075132353,-0.0139213664145847,-0.0147789684896356,-0.0092825939505917,0.0004527844654919,0.0102814112302432,0.0158738193267764,0.0147373733133172,0.0073898543883649,-0.0029146907825632,-0.0117381779920989,-0.0154722283764062,-0.0128388784944261,-0.005254788863907,0.0039713842107089,0.0111318222561479,0.0136117128004669,0.0107964218714396,0.0041236292918022,-0.0036351353694463,-0.0095178841160501,-0.0114881556512889,-0.0091221322517158,-0.003642230305866,0.0026779260668541,0.0074673776288611,0.0091630330516544,0.0075055813797464,0.0034737048184892,-0.0012447927305441,-0.0049716182575361,-0.0066323725150471,-0.0060119726795974,-0.0036477830070346,-0.0005049810089328,0.0023853594337418,0.0042226905154469,0.0046338834280266,0.0037342389750394,0.0020131794891758,7.836681342757175e-05,-0.0016042941040861,-0.0028195478452849,-0.0035143748238052,-0.0036194511224315,-0.002961369401612,-0.0013767236219492,0.0010312292309875,0.0036964068289042,0.0056539429941207,0.0059056358243614,0.0039297019818697,7.204685819048285e-05,-0.0044079513275383,-0.0077224473363049,-0.0082734968146944,-0.0054398182241066,-6.295892450488269e-05,0.0057059663467029,0.0092904608443305,0.0089623011121538,0.0048077792539907,-0.001243855737104,-0.0064113299288239,-0.0084954737820495,-0.0069147463113757,-0.0028050705536978,0.0017487342731692,0.0048192329327303,0.0054750202101177,0.0040000009993632,0.0015066081775828,-0.000758015649323,-0.0020150992022609,-0.0021816848745041,-0.0016865916654013,-0.0010713701703711,-0.0006535365749982,-0.00043116883115,-0.0002186817843856,0.000140390416285,0.0006481239260218,0.0011739587636496,0.0015589577384857,0.0016892328146443,0.0014834971237485,0.0008515652967959,-0.0002676547678758,-0.0017613627366561,-0.0032106577316869,-0.0039440949532544,-0.0033335446296178,-0.0011929211644519,0.001969676816728,0.0050326981377142,0.0066747252368414,0.0059406720503429,0.0027089440984749,-0.0021408918880739,-0.0069397098155728,-0.0097679517487023,-0.006686919455621,-0.0049472046689109,0.0016800495585354,0.0082353114307769,0.0119871311367317,0.0110760943052045,0.0054351707897867,-0.0029548628959745,-0.0107019272067513,-0.0143787770556533,-0.0121026150586402,-0.0045638277054544,0.0051080722765826,0.0127024905541708,0.0148829357709138,0.0107447080281111,0.002194566047786,-0.0069889237064418,-0.0129010659454985,-0.013215693162182,-0.0080919178352977,5.3243284158612546e-05,0.0077087154220167,0.0117862420150842,0.0108351891601074,0.0055126136069113,-0.0017980059174568,-0.008013678086762,-0.010609112940427,-0.0086219548445923,-0.0030194421149802,0.0037205554168688,0.0086552579359621,0.009634918595308,0.0062533767083009,6.460219919182981e-05,-0.0060794107604173,-0.0093237720924887,-0.0081603417669003,-0.003170105619525,0.0032429574995042,0.0080221971637427,0.0089474967180445,0.0056860229017858,-0.0001111868382008,-0.0056748302579594,-0.0084713456007651,-0.0073651587316067,-0.0030539383186205,0.0023725750638732,0.006478872743083,0.0076001772163458,0.0055014550202869,0.0013213196524875,-0.0030778568705543,-0.0059668794478835,-0.0064043907579846,-0.0044588448709549,-0.001010600314286,0.0026752863824472,0.0053788209873052,0.0062272957719659,0.0048653052602851,0.0015251792129264,-0.0030235556749845,-0.0076895528551339,-0.008896296400752,-0.001236782828787,0.0033487679671437,0.0066710038417456,0.0029471508461722,0.0016618178737556,-0.0014984164051043,-0.0013847249163708,-0.0004212559657108,-0.0003273866077083,-0.0008349685972833,-0.0013177775379731,0.0007934847259933,0.0006646669090926,-0.0027747792277294,-0.0016425202502214,0.0002719040286483,0.0012136110759692,0.0066239334364431,0.0043662938320055,-0.0021223393583023,-0.0043375830118897,0.002418933120719,-0.0067928043768742,0.000162440589685,-0.0090495332754436,-0.0055303830647362,0.010653412048839,0.0154457164213212,0.0105157539152541,-0.0032424757126618,-0.0133683270894428,-0.0071222326526128,-0.0053904509273258,-0.0012152443428097,0.0014723194025427,0.0103184950935133,0.0027317528271517,-0.0045175792208567,0.0004731165373798,0.0053899791408558,0.0032752843104374,-0.000441539697684,-0.0042760812153727,-0.0042957415432289,-0.0060294713379211,-0.0051629952018862,-0.0026506866772449,0.0043890720379948,0.0094097185485138,0.018083509192081,0.0028110570216667,-0.0047810029855022,-0.0082785773305351,-0.0165740714312856,-0.0129154764268256,0.0033808783132664,0.0099578684386386,0.0097213648229984,0.0091284265910757,0.009044915900201,-9.1109340247283e-05,-0.0152296079815421,-0.0107518309654391,-0.0048151336849154,-0.0022474630133551,0.0025399421278137,0.0084927257921105,0.0100953226387863,0.0103691589080598,0.0008892790694792,-0.0118869765256992,-0.0138942657694447,-0.0066009515253225,-0.0032285332705085,0.0066678719118395,0.0101307257782415,0.0108142577641811,0.0060440709157298,0.0007304640647783,-0.0052484218837498,-0.0134358163507561,-0.0111080394131347,-0.0069603317845402,-0.0023332938570595,0.0095703767878555,0.0160096348928334,0.0154824030101991,0.0084209552815156,-0.0029425052257415,-0.0151941750967725,-0.0182378357558612,-0.0133029824339813,-0.0044822231929804,0.0043348042974673,0.0112161480084143,0.0207114449970894,0.0163776121406101,0.0040757179176681,-0.0090270159715738,-0.0162036029890456,-0.0157210923074589,-0.0107184345008614,-0.0048766165893002,0.0073386811599829,0.0146027089549951,0.0147564415998062,0.0105218052612536,0.0043619926075806,-0.0069308854322552,-0.0142604503756279,-0.014864288191217,-0.0110121751689905,-0.0001782440825014,0.008501280610595,0.0130595135574129,0.0136026279249302,0.0079460292801889,-0.0010353686827219,-0.0092808843438187,-0.0133536781554097,-0.0118626431465162,-0.0058780316913297,0.0042723762668272,0.0103651993792986,0.0126055708706374,0.00790746916664,0.0024509028175624,-0.0039113103560638,-0.0086395563212027,-0.0099890696447304,-0.0076075015999406,-0.0025586808749801,0.0031863002615231,0.0075495655544701,0.0090972156193058,0.0074632719127154,0.0033514659161041,-0.0017981708996189,-0.0062989251738512,-0.0087012715192295,-0.0081856442776886,-0.0048271621527033,0.0003340518229509,0.0055274486455873,0.0088346635190198,0.0089569006344631,0.0058080526096823,0.0005896108075764,-0.0047266794029564,-0.0082373349571921,-0.0088302283721496,-0.0064783389606633,-0.0020806512313263,0.0029439319079156,0.0070767366312391,0.009033993814572,0.0080531180917701,0.0041768984137401,-0.0015456178424775,-0.0071612502565734,-0.0104007890752431,-0.0096514890929931,-0.0048583844250819,0.0022075630772757,0.0085868923435714,0.0114391457508124,0.0093934294244614,0.0032625165369741,-0.0042618824550075,-0.0098203678568603,-0.0109389413612549,-0.007179045445411,-0.0003302881584,0.0064411187499066,0.0100708114663082,0.008998164543141,0.0038489224812488,-0.0028943437747636,-0.0080670678449234,-0.0093000869474412,-0.0061155951631822,-0.0001239372098882,0.0057749131955504,0.0087944801825589,0.0075772400662932,0.0027860465909212,-0.0032774073288582,-0.0077853197959874,-0.008670063529581,-0.0055161778311387,0.0002835687790127,0.0061364690894047,0.0093634896641148,0.0083713934836576,0.0034060316335422,-0.003449380408153,-0.0090948823393544,-0.0107820391347206,-0.0074612772002573,-0.000437039918773,0.0071026793605606,0.0115651142082944,0.0107386142328937,0.0049451294531052,-0.0030858112970204,-0.0095848613284324,-0.0116317954262061,-0.0085497628538875,-0.0020728204488676,0.0047222725649142,0.0090163784622535,0.009455252081485,0.006425775609285,0.0015043675691776,-0.0034116065153396,-0.0068003244605724,-0.0078365858957684,-0.0064097592055194,-0.0030169737859647,0.0013572229975779,0.0054005307530208,0.0077653250205726,0.0075096371431161,0.0045372525760161,-0.0002159431925672,-0.0050329947492325,-0.0080669544962464,-0.0081169321447073,-0.0051547201424412,-0.0003391935118578,0.0044856934289656,0.0075619293774601,0.0078973313550148,0.0055617549005754,0.0015159799991958,-0.0028650599055811,-0.0062831215696379,-0.0078123066804518,-0.0070038012141335,-0.0039397967983008,0.0006865929816636,0.0055616148802327,0.0089942720365151,0.0094821972938568,0.0064188643744741,0.0005682416232314,-0.0060272125463873,-0.010764754738197,-0.0115531272097508,,,
-0.0142572839861612,-0.0095219032542623,-0.0015318814731776,0.0066951518172601,0.0122137577979705,0.0131515179925346,0.0093392113909462,0.0023501524101523,-0.0051243214180523,-0.0103502299016564,-0.0116096623273269,-0.0087705987089405,-0.0031665685664805,0.0030625095590148,0.0078095534518295,0.0096785135699911,0.0083181358939283,0.0043930692451251,-0.000720869546067,-0.0053843314570673,-0.0081546933846456,-0.0081726194492255,-0.0054298566884975,-0.0008533778048088,0.0039092249555602,0.0070629932151035,0.0074322610695835,0.00502515414614,0.0010267947485729,-0.0028125963800435,-0.005036425803487,-0.0050952991976556,-0.0034292458677811,-0.0010776093445177,0.0009023296297574,0.001914653104935,0.0020105908786997,0.0017162712792979,0.0015946186797563,0.0017977616666199,0.0019140930196765,0.0012528774146651,-0.0005834309333691,-0.0032135956103828,-0.0054460906415303,-0.0058180120129181,-0.0034675369022021,0.0011501387171536,0.0061902034427879,0.0091722438470396,0.0082590658320624,0.003371550666954,-0.0035476571322267,-0.0093597616893936,-0.0112522468922009,-0.0081574060869828,-0.0013244868450734,0.0062359307036285,0.011142657622339,0.0111959842823694,0.0063763681960852,-0.0011579846714208,-0.0080715605181787,-0.011382082389091,-0.0097872727785457,-0.0041585234420452,0.002980549947581,0.00864912533019,0.0106573401311946,0.0083790571685363,0.0028433931027982,-0.0037538838380298,-0.0088700595191762,-0.0105055889695192,-0.0079333846761565,-0.0020506468378605,0.004835380950133,0.0098441684317294,0.0107528548608675,0.0070812548507154,0.0004201567129973,-0.0062719624937418,-0.0100889147808603,-0.0095529171528909,-0.0052102730014248,0.0008117392096041,0.0059449495502409,0.0083399686643179,0.0074770699968873,0.0040833776524369,-0.0003872327913178,-0.0018701325498651,-0.0067114402151126,-0.0069779132604095,-0.0054979811442644,-0.0032072296672419,0.0011413083148241,0.0062743305402248,0.0066254272893243,0.0097923411356416,0.004727346625662,-0.0019016565288795,-0.0084597536308304,-0.0089608521961102,-0.0087078205511199,-0.0044223844026322,0.0042003790235882,0.0100719828167196,0.0099817015793868,0.0067855921142236,-0.0003171159509118,-0.0069159956481953,-0.008596745468752,-0.0070770385297057,-0.0030176745893979,0.0016583608564607,0.0046006704867504,0.0067022461347613,0.0078871164177754,0.0049371036517311,-0.0019969781308406,-0.0111059495079581,-0.0092368624684708,-0.0044812824148966,0.0013279093334685,0.0059320573039129,0.0076086436944234,0.0059434604876877,0.001987494328102,-0.002302909033289,-0.0050437284553594,-0.0052866752457247,-0.0033316380742615,-0.0004011613277031,0.002060975558427,0.0030667691829687,0.0024249978603608,0.0006346587745881,-0.0015683990387134,-0.0012536437194973,0.0012600054539275,0.0026715734531741,-1.097293265330782e-05,0.0029419849450439,0.0008049564481546,-0.0060881449755289,-0.008323451632018,-0.0078290610879244,0.001049697959065,0.0072398131704829,0.0115884405780053,0.0114054714156417,0.0067910471877441,-0.0040068359683105,-0.0161103609634446,-0.0128896478236107,-0.0117005450964057,-0.0012273172030106,0.0078060191961981,0.0132338535411776,0.0165524173460816,0.0119827367655224,-0.0019509718960815,-0.0127716803177988,-0.0177178691041438,-0.0124287513848912,-0.0035875877090062,0.0075120864629302,0.0113593113573193,0.0101235869324624,0.0022251127094263,-0.0003765210596962,0.0046562254186617,-0.0019630487911811,-0.0082342807403425,-0.0090478464897279,-0.0061893643232392,-0.004903454397067,-0.0048176281087728,0.0178351233921526,0.0190949749282412,0.0095866485707162,-0.0048138878005976,-0.012592067268377,-0.0140757267708005,-0.0094340423834961,0.002085282636391,0.0015147337600535,0.0031148083266578,0.014270752030076,0.0133975585977466,0.0021894416370139,-0.0114862157619515,-0.01658383073752,-0.001267238627634,0.0011570510791944,0.003161859779206,-0.0046903406461113,0.0083382929446273,0.013576660816726,-0.0026289614075961,-0.0101051681743367,-0.0032637572637127,0.0061357831084693,0.0009120753176331,-0.0118023419552125,0.0002123313890624,0.0025211403072922,0.0080600029340308,0.0074068586248026,-0.001324041032177,-0.0053282342654421,-0.0034002299763509,-0.0042127122706085,-0.0081545631039926,-0.0038505354373973,0.0175236095129569,0.0137897067140928,-7.275429351867179e-05,-0.0064948855990701,-0.0179030963155356,-0.0014157516448155,0.0115511219147159,0.0033790214042262,-0.0021988995363186,-0.0033568522363807,-0.0081797611019381,-0.0050703796468774,0.013043392031316,0.0155167484203784,0.0042352050983234,-0.001065497808591,-0.0083709040490585,-0.0152677882542438,-0.019858994122844,-0.0011090638818583,0.0150295327081741,0.0166699881705436,0.0119644109628781,0.009221212930044,0.0007476720328122,-0.0143954512475134,-0.0240551656503101,-0.0142136975580492,0.0021186252317561,0.0127682107601697,0.0121296291731369,0.0098756342305906,0.0096424139360022,-0.0025649403504966,-0.008147014649753,-0.0116798229043106,-0.0110498392382795,0.0010784433814579,0.007178224222995,0.0001030804874597,-0.0002681225562951,0.0107533458024849,0.0113156668285153,-0.0025248541685757,-0.0189565942281505,-0.00698360460747,0.0077243621186913,0.0043119091611039,0.0017204080050052,0.0019325758185105,0.0002465347460302,-0.0037122778004899,-0.0094649234239485,0.0019234978040464,0.0072799236846995,0.0034813323400527,-0.0010805042676991,0.0029398190787578,0.0018207908498452,-0.0014836805307736,-0.0062004315998211,-0.0098662093467002,-0.0006035439378764,0.0049112711159614,0.0039674938263156,0.0014581430897978,0.0055314239156712,0.0071620839685664,0.0024138833121825,-0.0062862734360538,-0.0109398516909621,-0.0106266409762291,-0.00447697717409,0.0046640116422013,0.0087476385626111,0.011355473851988,0.0069842773036618,0.0030725612887213,-0.0038391097622279,-0.0099754853384475,-0.0121899812031371,-0.0133611886634491,0.0050750688442303,0.0129939122776306,0.0124715179973831,0.0059224643361808,-0.0012989424837695,-0.0107959014343286,-0.0069894945271841,0.0012238983542049,0.0021132664616901,-0.0001040754873507,0.0009711794848044,-0.0007373898539756,-0.0012869886716519,0.0014220863204495,0.0024762892680071,0.0020874409472814,0.0006296511270758,-0.0013144609477192,-0.0029824479031505,-0.0011593053970734,-0.0005347106056117,0.0010574187467959,0.0002647760448369,0.0011908377529825,0.0009011879728366,-0.0003817704452985,-0.0019766819509738,-0.0031449791048192,0.0014386739708544,0.0043644768155857,0.0024217391859265,0.0024050933156858,-0.0008234444909684,-0.0044762229125438,-0.0049732020824607,-0.0039204174441467,-0.0011242217104929,0.0026197616308397,0.0057519215787715,0.0066059993515655,0.0042445554859444,-0.0008708567349098,-0.0018813753163324,-0.0058982556556556,-0.0083771308192004,-0.0067518103280686,-0.0001172979553668,0.0061767314018875,0.0094503925226993,0.0083984090745798,0.0036327518382169,-0.0026551056280286,-0.0077108115973392,-0.0094202428864696,-0.0046863006257733,0.0003316706383799,0.0032259153632284,0.0064798389631945,0.0062174906693338,0.0028548919003599,-0.0016899437315469,-0.0050307379799972,-0.0055418254396583,-0.0031502565044966,0.0007108361823472,0.0039360814031943,0.0048921167377823,0.0032406920875573,1.1541304113688786e-05,-0.0030617056134836,-0.0045072994410106,-0.003811207949874,-0.0015056339547417,0.0012732533589219,0.0034006510294367,0.0041999646831131,0.0035543380431642,0.0017696346521765,-0.0006210016732927,-0.0029705328176397,-0.0045724427404628,-0.0047917471999621,-0.0033291282254628,-0.0004768380375285,0.0028623360786061,0.0054831705735423,0.0063658160880856,0.0050758965458649,0.0018977319949101,-0.0022812076364046,-0.0061979918850086,-0.0084746084100269,-0.0079643613729367,-0.0042427169105986,0.0019009010872142,0.0083488515834775,0.0122673767213927,0.0113838805251235,0.0053273845517185,-0.0037990322624878,-0.012115222494493,-0.0157141109331269,-0.0126032104695203,-0.0038134719176908,0.0069381495989509,0.0149132338548722,0.016556794925699,0.0111686521811047,0.0012071145036624,-0.0089242010052851,-0.014966537993785,-0.0146959996598772,-0.0087109094258989,0.0001344103852238,0.0081950399174638,0.0125905017210447,0.0121652219827111,0.0075996880230232,0.0008470469478186,-0.005713690584378,-0.0100449860435525,-0.0109474759136684,-0.0082690959262591,-0.0028871714142261,0.003502531085845,0.0088051729723558,0.0111423661378463,0.0095279144028571,0.0043443206323901,-0.002639851576204,-0.0088170809450888,-0.0117180159071826,-0.0100596796524882,-0.0043944472711744,0.0030123556373705,0.009112815488558,0.0114195451622318,0.0091079274167957,0.0033292362337889,-0.0033952884745364,-0.0083508884226458,-0.0097716116244837,-0.0074410850198103,-0.0025856895399984,0.0027687456319488,0.0066409370416311,0.00780673848163,0.0061474522485131,0.0025536943432457,-0.0015244502288505,-0.0046668252040909,-0.0059745341391132,-0.0052939461798483,-0.0031234704152277,-0.0002900799697566,0.0024096755296146,0.0044065556388006,0.0053331280230548,0.0049084881544622,0.0029508663816536,-0.00038538345481,-0.0043085632285718,-0.0073654047128228,-0.007939692518527,-0.0051444177754396,0.0004141774200231,0.0065842648263015,0.010529044772826,0.0101229122695506,0.0051320780689691,-0.0024987817208775,-0.0094623683442328,-0.0126181157667861,-0.0104603332898877,-0.003801307990221,0.0046140071042973,0.0113096075276508,0.0135192235159211,0.0102767705759703,0.0027770091595308,-0.006080549587359,-0.0127794825777943,-0.0145277438624584,-0.0103868782813835,-0.0017608366994435,0.0080046868698259,0.0148557354239388,0.0156916529758656,0.0097991716548316,-0.0006104727744469,-0.0111374198709488,-0.0170377114303143,-0.0154343479378497,-0.006835825770922,0.0049043951580988,0.014330932766709,0.0170426315303511,0.0118871711210856,0.0015093844812318,-0.0090338937857265,-0.0148264561062361,-0.0134650790328675,-0.0060747747997458,0.0034536527589983,0.0105183216965326,0.0120636051008338,0.0079194251297892,0.0006273948099319,-0.0060486356624853,-0.0090790848258373,-0.0075574474936675,-0.0028560712679238,0.0023920960316411,0.0057771133336157,0.006187567272079,0.0040008273854668,0.0005326973260296,-0.0027291883082463,,,,
