-0.0054127311111857,-0.0117438965859103,-0.01301926679464,-0.0094253278718967,-0.0029580858517022,0.0036495580376134,0.0080756152601687,0.0091771599159892,0.0071730490016084,0.0032901016961262,-0.0008933487048118,-0.0040904271106341,-0.0056680252269192,-0.0056324555365297,-0.00435189579848,-0.0022553008577628,0.0002879330647543,0.0028803076361764,0.0049666822161269,0.005876003877171,0.0050919184868288,0.0025877941928578,-0.0010187465424907,-0.0046141593975856,-0.0069687375761803,-0.0071693024152399,-0.0049443649628846,-0.0008001380381896,0.0040510356146687,0.0079711047129139,0.0093811734596163,0.0073811699932736,0.0022917689174537,-0.0042069421747226,-0.0095783829008513,-0.0114792391117124,-0.008878473100722,-0.0026411272213687,0.004769287510665,0.0103457750125717,0.0143233655878703,0.0085812518750732,0.0018495704383937,-0.0057629377924533,-0.0112639612754061,-0.0124565924810901,-0.0088270559165392,-0.0017819261192506,0.0058767677324937,0.0110726984632262,0.0117414113752484,0.0077166031944667,0.0007817184937617,-0.0061487162296877,-0.0078260579091849,-0.0103375150656534,-0.0065867829650788,-0.0009033975488489,0.0043812600041787,0.0073906736997453,0.0073436385228219,0.0047003794954811,0.0008204974376148,-0.0026834639033215,-0.0046156435914249,-0.0046111003374068,-0.0031304468178628,-0.0010805166838202,0.0006872824791824,0.0017032935204407,0.0019053611052918,0.001482731911644,0.0032194681466858,-0.0001027641615936,0.0017351881880308,-0.0011744923539524,-0.0014098265420483,-0.0016302907441852,-0.0018801882239861,-0.0019647681361382,-0.001533158932216,-0.0003531440369838,0.0014036737650785,0.0031005744911963,0.0038947957411361,0.0031943464322893,0.00104585148087,-0.0017898227237042,-0.0041416503780437,-0.0049606568255165,-0.0038070245201022,-0.0010636683058418,0.0022018029281802,0.0046612290169368,0.0052763506978736,0.0037570348710179,0.0007130817163447,-0.0025954342799564,-0.0048053322916559,-0.0050374642646901,-0.0032541460697918,-0.0002395857834587,0.0027643692631314,0.0045868778447471,0.004586537276091,0.0028570632032632,0.0001227536994328,-0.0025930852851423,-0.0043541718310523,-0.0045921368117458,-0.0032228072385379,-0.0006356478627485,0.0023918892150499,0.0048547581846688,0.0057826022312932,0.0045834118092017,0.0013629673577329,-0.0029367494337895,-0.0067155723818595,-0.0082461549873896,-0.0064300811762424,-0.0014722722313552,0.0049131200333293,0.0100163900090841,0.0112693409896763,0.0075286151959397,-0.0001437731560724,-0.0086805892680305,-0.0117414759176944,-0.014009785855848,-0.0076625617782087,0.0023054211095933,0.0116033511801161,0.0160677773200028,0.0136219241203633,0.0052947128216716,-0.005253168216003,-0.0134510962386824,-0.0158944473228641,-0.011773065077782,-0.0030668641737012,0.0064599270367637,0.012934850887843,0.0139732140879595,0.0095397609226181,0.0017741355048018,-0.0060610612261614,-0.0109823905135387,-0.0114097792560866,-0.0075948134746445,-0.0013096729650098,0.0049461608839314,0.0088726966398091,0.0091469702206263,0.0058599611659827,0.0004816481205587,-0.0046893453835566,-0.0074570120802714,-0.0066943798700708,-0.0029027607785214,0.0019602935836168,0.0053948842027518,0.0056351788655907,0.0026363780961824,-0.0018266545968908,-0.0051034615325269,-0.0051840989558713,-0.0019116753891981,0.0028632690241688,0.0063245788163354,0.0063289677341754,0.0026653746537828,-0.0028028649075858,-0.0071674713637372,-0.0080580699763115,-0.0048984356972705,0.0008043988130843,0.0062413968961019,0.0087244705922204,0.0070300788421691,0.0019993039987115,-0.0038924477957102,-0.0077674572106389,-0.0077629117487192,-0.0039463375937134,0.0016980639277494,0.0061860441109084,0.0068960737799852,0.0052113098938777,-0.0006964604518598,-0.0060285635128724,-0.0082052724565605,-0.0025580502561322,0.0021003991258319,0.0072479620909752,0.0038926258597363,0.0016813161950128,-0.0004941655179525,-0.0048364833471383,-0.0024331659216667,-0.0059911379700624,-0.0022419949212783,0.0036407732708665,0.0053678002543533,0.0061081917806645,0.0047424494695202,-0.0034968562159198,-0.0024838730500934,-0.0048184912315987,-0.0062898164963634,-0.001682766540655,0.0005563826286257,0.0007207070741298,0.0087314150945352,0.0064551530171157,0.0014473682438549,-0.0024458233240132,-0.0035913224748298,-0.0055441647764389,-0.0033674047740167,-0.0029675591216273,0.0014875212411265,0.0056036716295359,0.0035218211874899,-0.0030046413803221,0.0016807375918119,0.0076298389042315,0.0010374422772749,-0.0030527278650985,-0.0081824368029788,-0.0074239934999263,-0.0030802474694486,0.0015456487294099,0.0059822041742104,0.0087294889437131,0.0080099978281501,0.0034439187944904,-0.0054418558388237,-0.0100607020081053,-0.0107705197713054,-0.0066563093067112,0.0058534831486788,0.008471037088267,0.0113738864239195,0.0054441009180201,-0.0007845017967941,-0.0114795493369294,-0.0071558919285547,-0.0078622393777316,0.005106620001365,0.0116871551655711,0.0026509415612221,-0.0014086740108805,0.0008837840356595,-0.0022060086468611,-0.0117725627574209,-0.0082086590834397,0.0139131450409013,0.0157143382391304,0.0033689139739626,-0.0135156382754379,-0.0131916968292,0.0041354553213735,0.0053410525873493,0.0018234103459958,0.0007623570589887,-0.0054676925687982,0.0011036616634787,0.0061599711301637,0.00103016970394,0.0020703849360457,-0.0023224275197999,-0.0073593585175404,-0.0067409228335169,0.0008025671346608,0.0072588579669194,0.0100044146844548,0.0015750486236026,-0.0078132508927465,-0.0054721863372829,0.0021893659914275,0.0009565074930454,8.23472661950184e-05,-0.0023046094716679,-0.0029467114360766,0.0022724295420539,0.0046812669862254,0.0087296406103661,0.0021128237214871,-0.0088330873866341,-0.0140413800191928,0.0009310242850369,0.0061334153870194,0.000411662084199,0.0019721386470073,0.0029450748844571,0.0063577861744017,0.0009766616399395,-0.0026904704754753,-0.007257154877788,-0.0035761377731725,1.112217561759226e-05,-0.0022117950422626,-0.003455813671362,0.0035751016626899,0.0091509945069962,0.0057063351543711,0.002247804717751,0.0008092090928784,-0.0029837395323778,-0.0074936930674818,-0.0082145704160264,-0.0059260358064443,-0.0056689599142457,0.0034687574791867,0.0142899721068692,0.0147894651724628,0.0064651926272788,-6.959437927406703e-05,-0.0070262261401112,-0.0108558577958659,-0.0137701558069356,-0.0104731345684441,-0.0006940005429075,0.0066102695622439,0.0099900551003749,0.0171201808555676,0.016248143785126,0.0027663617845246,-0.0103916848982012,-0.0181358709489787,-0.0165026645630328,-0.0104834642164373,-0.004173267054506,0.0074096131335955,0.0191411177838664,0.0194626745698729,0.0128272933571313,0.0001325228711309,-0.009047311791285,-0.0166659497437391,-0.0174087971098959,-0.0125709937844276,-0.0031645200894475,0.0077353996140106,0.0160662124416562,0.0184263256452873,0.0136280068145969,0.0034192091980683,-0.0080861448214069,-0.0161432998129395,-0.0175117259570253,-0.011920354063974,-0.0020865111184768,0.0077014913266153,0.013627490956367,0.0139218706539232,0.0092636916086072,0.0020435182778182,-0.0049084710394585,-0.0094175088814168,-0.0104773530832037,-0.0082132105257927,-0.0035880326534631,0.0019027608538847,0.0065347104392916,0.0087773277213384,0.0078383780963812,0.0040891605216908,-0.0009552040605882,-0.0052252303067257,-0.0070275433908366,-0.0058413485040778,-0.0025398894646738,0.0011046512480072,0.0033795143409017,0.003529810470748,0.0020865848334486,0.0004247895849124,-0.0001913393252515,0.000519875427445,0.0016496836516281,0.00173937437586,-0.0001055491469911,-0.0033698454741672,-0.0061937306977438,-0.0064263740906784,-0.0030621907265463,0.0028682991562701,0.0085937836509471,0.0110015290014068,0.0083681043236854,0.0014270289519814,-0.0068472824802966,-0.0126376687615346,-0.0131307969308684,-0.0078776892494164,0.00097685254164,0.0096634670526724,0.0144656103535973,0.0133291179590737,0.0067124488918326,-0.0026439511456586,-0.0108910339665733,-0.0146829351189992,-0.012558941036366,-0.0055173275779214,0.0034630365706661,0.0107338545246694,0.0135213027809519,0.0110096048523033,0.0045234212659498,-0.0031830351202538,-0.0091342214659176,-0.0112949370597944,-0.0092410310750842,-0.004140657988756,0.0018696744689205,0.0066016105023833,0.0086204809601933,0.0076300951628945,0.0043609896010604,0.0001241272487406,-0.0037055652451552,-0.0060777748272991,-0.0064708691541892,-0.0049453667784134,-0.0020796528447041,0.0012093267451676,0.0039425876744885,0.0053758182365747,0.0052016416452071,0.0035794080819847,0.0010090603928009,-0.0018526152621925,-0.0043288148920057,-0.005781375828336,-0.0031821021648352,-0.0038159862652497,-0.0005350575375752,0.0031716264488004,0.0059228896823514,0.0064888901894779,0.0044361376057657,0.0004857484415529,-0.0037159231730497,-0.006348272823266,-0.0062873873840381,-0.0036323083470065,0.0003661099931015,0.003913074788293,0.0055093061289842,0.0046264284789994,0.001904312156454,-0.0012205411182597,-0.0032688625768671,-0.0034661028498294,-0.0020837917751547,-0.0001840853028945,0.0010835635498628,0.0011998312455534,0.0005385959101442,-8.145912785730017e-06,0.0002208980199746,0.0010916943573557,0.0017408178566566,0.0012491878027704,-0.0005731044509873,-0.0028869310069876,-0.004254557004506,-0.0010532399694141,-0.0008100572567792,0.0026377669786133,0.004857905216113,0.0044746567835589,0.0015368508154935,-0.0024211432513304,-0.0052084716575556,-0.0052514305723595,-0.0025435356705408,0.0013426393061865,0.004218953748637,0.004614009384344,0.0026104401249416,-0.000338637347619,-0.0024373375633701,-0.0026859768434168,-0.0013800059994768,0.0002826158390446,0.0011131192562849,0.0006947067050275,-0.0004707581409622,-0.001417654718642,-0.0013808288552927,-0.0002383454648169,0.0014603926997861,0.0028038628473206,0.0029648392192984,0.0016024930759205,0.0015674974185512,-0.0036994908322748,-0.0055180895510195,-0.0054136950153213,-0.003063636867835,0.0009104714179504,0.0050296892295046,0.0074949730134888,0.006993450102329,0.0034066770216171,-0.0019678323883022,-0.0068748181493162,-0.0090935701026425,-0.0075092078313181,-0.0027103446306612,0.0032342552770629,0.0077392385458904,,,,
0.0045065273791064,0.0040740232983348,-0.0025536652024477,-0.0059980747966957,-0.0070551639277558,-0.0050375159519867,-0.0006816808791452,0.00413057585667,0.0072243681023938,0.0071468933792543,0.0038684302501269,-0.00116581482094,-0.0056797409586295,-0.007626479936498,-0.0061598836926505,-0.0020263325609938,0.0028256929144243,0.0062055583264868,0.0067098795065324,0.0043203474427182,0.000313920881446,-0.0034309079298513,-0.0053602803206106,-0.0049208564224815,-0.0026541432481883,0.0002618580888493,0.0026654178025812,0.0038540414548622,0.0036628123849689,0.0023158707081862,0.0002712702476758,-0.00185697236502,-0.0033759955345529,-0.0036867925569803,-0.002540210752913,-0.0002475417981102,0.0023147192930819,0.0039955145303901,0.0038941304167161,0.0018847070753444,-0.0011799736170887,-0.0037922912645842,-0.0045480443044642,-0.002942283159404,0.0002752049340817,0.0034371241034054,0.0048356341449524,0.0036540650639821,0.0004262798236556,-0.0032255063984976,-0.0029365931016309,-0.0050969801962306,-0.0024329699518187,0.0011671873035917,0.0039185344558792,0.004547970442381,0.0053899209972864,-0.0001382546035821,-0.0030899374330709,-0.0046850947998226,-0.0043336441223832,-0.0023124641677666,0.0004452910060967,0.0028074253828323,0.0039191748559959,0.0035057383974541,0.0018977507637987,-0.0001945951643762,-0.00201549151838,-0.0030342528299162,-0.0030580369768805,-0.0021964255810495,-0.0007480162669295,0.0009114585395781,0.0023877033223539,0.0032825835891199,0.0032353196089952,0.0020542628782665,-9.125443114266412e-05,-0.0025603070148087,-0.0043695866619408,-0.0045961856395249,-0.0028845373442593,0.0002462280663347,0.0035349871918661,0.0055381615593186,0.0053257623285369,0.0029273707525529,-0.0007030479828657,-0.004145480712145,-0.0061158313552774,-0.0059099998633418,-0.0035523039007209,0.0002824845799733,0.0044298112831472,0.0074456312287378,0.0079712457035604,0.005302085037213,-5.091599205584795e-05,-0.0062229211376917,-0.0105722865897635,-0.0108388680018435,-0.0063322143501867,0.0014988479263483,0.0094837610939214,0.0140256370597937,0.0127332994888221,0.0056498039465768,-0.0045349416541408,-0.0110004491671278,-0.017196163377846,-0.0137437050481856,-0.0043862909235006,0.0069622304203513,0.0153991607537179,0.0172536970729693,0.0118056523662396,0.001605340938107,-0.0088026397199677,-0.0150709003181163,-0.0149791816705091,-0.0091580940886232,-0.0004325416414188,0.0076480846469198,0.012267568164111,0.0122075442560003,0.0079770815490858,0.0013843690843484,-0.0051787069357998,-0.009515393560155,-0.0102985320111464,-0.0074832315286788,-0.0023105911106921,0.0031574328850919,0.0068519361633235,0.0075518470960681,0.0078754041394417,0.001622651315425,-0.0019372650287151,-0.003939924081128,-0.0040568726666562,-0.00306058489146,-0.0022354569457553,-0.0024811357389427,-0.0012298027958193,-0.0002522808667298,0.0013388573844928,0.0053773923376836,0.0057099290328024,0.0052736448774923,0.0060875345908258,-0.0018307196757663,-0.0074432602709119,-0.0139548011246378,-0.0121298428902219,-0.0037438974828101,0.0091803624692975,0.0138989949466498,0.0134979509267857,0.0072089159984632,-0.0024208417779475,-0.0106021525370979,-0.0101721700471971,-0.0083946511781558,-0.0037267967098831,0.0030128224613692,0.0052557432883422,0.0051778920720827,0.0073135775732018,0.0061083972855994,-0.0002882747268167,-0.0069032617873902,-0.0052252707683566,-0.0026645444233066,-0.0029371776136068,-0.0001221393436378,-0.0005323217670228,-0.0001447500232941,0.0035752096156566,0.0062923904278171,0.0066198714420212,0.0023395707132826,-0.0038488879157645,-0.0051232178757023,-0.0090397977373427,-0.0057491682834574,-0.0024603015886678,0.0060137153236827,0.0098364378453008,0.0063853458773012,0.0021073572654263,-0.0035615278157003,-0.0026687191262129,-0.0011925554476935,-0.0048272290018665,-0.005022754498656,-0.0020766295445211,4.031200443696207e-05,0.0040217739160137,0.0055579770683604,0.0083866340269508,0.0032689904217256,0.0010969077294719,-0.0062663313250363,-0.0131267499303204,-0.0091082661968004,-0.0018509564851824,0.0061392318326742,0.0142179044374568,0.009387003122557,0.0035047362616544,-0.0083129657483144,-0.0079807016362712,-0.0032995604930645,-0.0029646131445444,-0.0020393685197338,0.000832370361551,0.0035898583129043,0.007040274706476,0.0025688145135818,0.0016377913107168,-0.0023952456238719,-0.0003785106247222,-0.0045939320302206,-0.0027660051189025,-0.001101012371195,-0.0027073111727149,-0.0027844095008546,0.0027806664185237,0.0091962617525901,0.0084763426389283,0.0021505283324556,-0.0020317627514999,-0.0078946445745773,-0.0107272422824586,-0.0076382793848252,-0.0003702621562645,0.0074738768982483,0.0099163319906974,0.0116102394182199,0.0048271944430316,-0.0065625385183273,-0.0124618903582934,-0.0078267210503042,-0.0056924396878192,0.0011102925855884,0.006072251197514,0.0126799361498591,0.0081819109656549,-0.0016326955382713,-0.0076423689200045,-0.0029601809816088,-0.0063401978020286,-0.0064498629709615,0.0017942677726259,0.0036727903767539,0.002327152230943,0.0073454047328102,0.0103601965103508,0.0014045616014335,-0.0079260271672729,-0.0092964546637838,-0.0077551019876078,-0.0068590498943271,-0.0011165798118907,0.0099530880419148,0.013047841849834,0.0100019016288653,0.0010118189052342,-0.0076081771105741,-0.0063844779965572,-0.0048349301419826,-0.0085988793964454,-0.0028730984768535,0.0009786901434875,0.0053072219581383,0.0100955975235523,0.0087664661444131,0.0035886425012297,-0.0044392908783847,-0.0061492748453482,-0.0095470172124373,-0.0034386799281969,-0.001956802490958,0.0016219345056779,0.0035309809997276,0.0069458496856103,0.0056770144971849,0.0018982267341179,-0.0013039811452524,-0.0044314172661198,-0.0052198153584896,-0.0046889742621758,-0.002874690700359,0.0003721293611706,0.0070608248790165,0.0072421548799969,0.005017348337501,-0.0008518854514924,-0.0074084511549165,-0.0064219106365665,-0.005621673879111,-0.0004137878242989,0.0042173656217202,0.0070387788989779,0.0080130602347118,0.0042538660944184,-0.0022181981649463,-0.0080376169557788,-0.0101856963540343,-0.0074790699470862,-0.0011415433675049,0.0082946611382413,0.0099426515966534,0.0092183191954413,0.0039375655920464,-0.0032806530553267,-0.008840492430967,-0.0100270541657449,-0.0063973607047273,4.153722309877608e-05,0.005954912039613,0.008467007938368,0.006619183232012,0.0017317454950704,-0.0034481020874765,-0.0062652079739012,-0.0054935231785618,-0.0018290524773394,0.0026113288133694,0.0054264273000195,0.0051072759444672,0.0017356660594207,-0.0030546509373561,-0.0068124859007,-0.0049208292936605,-0.0042139960048604,0.0015220172999585,0.0070548169738848,0.0095277229456269,0.0074360313699846,0.0014861757715886,-0.0056624709043406,-0.0106671190834916,-0.0111116395491594,-0.0066457101131076,0.0008629434901433,0.008184111169109,0.0121659347996363,0.011107240160088,0.0054633936712186,-0.0023971978801623,-0.0092417301759613,-0.0123425210510862,-0.01057108411094,-0.0022921223840861,0.0025413569400367,0.008433896680689,0.0106236028807848,0.0084834641673908,0.0031492749630097,-0.0030799982855845,-0.0077320772314515,-0.0091184857027504,-0.006916849943502,-0.002214284070348,0.0029764313934224,0.0065594589917703,0.0072389491852351,0.0050452882850662,0.0012239861550948,-0.002461575735212,-0.0046115392266512,-0.0047554782829483,-0.0033399552714933,-0.001258656516319,0.0006990200372071,0.0021313304359474,0.0029478115367205,0.0031251060245235,0.0025759500379478,0.0012522622077933,-0.0006414047578273,-0.0025555382860844,-0.0037554522956474,-0.0036662103967212,-0.0021985179762511,0.0001456106349338,0.0024651521652036,0.0038601078614205,0.0038295670226855,0.0024614057508636,0.0003366578913627,-0.0017618129813058,-0.0031598878160467,-0.003484955774588,-0.0027140204644771,-0.0011320177031842,0.0007471030206636,0.0022994318280925,0.0029796641969276,0.0025530561994993,0.001246752198599,-0.000325779816879,-0.0014812602567311,0.0006405105921642,-0.0016410432374913,-0.0013723973425876,-0.0014643525077983,-0.0017889972001395,-0.001736089421557,-0.0006938291474936,0.001381391358639,0.0037170806076265,0.0050335118715393,0.0042836606085482,0.0013808315668379,-0.0025750583522058,-0.0057759412913473,-0.0066503339004279,-0.0047272600296933,-0.0009020037689789,0.0030562695915411,0.0054543517971473,0.00551552734129,0.0036403717663124,0.0009990455609932,-0.0012255127023766,-0.0024483213952943,-0.0028022379272289,-0.0027776265594696,-0.0027045313675585,-0.0024647705631422,-0.0016189189031933,0.0001704412260842,0.0027274409777029,0.0052430935752312,0.0065386141311722,0.0055985298552079,0.0021404568156156,-0.0030322858694868,-0.0080996854531251,-0.0108025368099545,-0.0094095672177123,-0.0037040876298919,0.0045314129386177,0.0119464875791065,0.0149822700559611,0.0116353073411108,0.0027305079611197,-0.0081069470337696,-0.0159786114719457,-0.0170800322992568,-0.0106718165453399,0.0029378190326462,0.0111885025397188,0.0167124150467901,0.0146767693851027,0.0062769631659942,-0.0045439639924027,-0.0130533961225038,-0.0158113856380435,-0.0119805049911717,-0.0009681388495801,0.0059843428809441,0.012383932801414,0.0131653008555481,0.008248557494783,1.328057187001743e-06,-0.0078532280939872,-0.0119066482041925,-0.0105778946793976,-0.0047632390792602,0.0026845991426484,0.0083703860585405,0.0099423599865262,0.0070786832947256,0.0014519585165607,-0.0042158761867512,-0.0074705192642498,-0.0071694247016223,-0.0038275232354365,0.0007894518494708,0.0045587709977502,0.0059547750377364,0.0046481263946822,0.0015118019620659,-0.0019144969569606,-0.0041866207189845,-0.0045532236779573,-0.0031434704615339,-0.0007492664692497,0.0016142193786763,0.005623653426609,0.00335739199231,0.0023208391740692,0.0003936056783588,-0.0017952645877479,-0.0035466068087987,-0.0042565824716047,-0.0035693278942926,-0.0015355619087803,0.0012925605286931,0.0039554855430745,0.0054180746635945,0.0050160154628371,0.0027739330493741,-0.0005940026312904,-0.0039885951975857,-0.0063353648896495,-0.0068824131323007,-0.0053209184772393,0.000653857177076,0.0027283559663034,0.0069577409591268,0.0091236270682016,,,,
0.0019548882722564,0.0032324896016895,0.0025846490050995,0.0002838396138524,-0.0024517499716292,-0.0041110757935929,-0.0036720294268191,-0.0011385248851025,0.0023971084938514,0.0052059279339029,0.0057267734058645,0.0033830091553787,-0.0009976996602396,-0.0054393156216951,-0.0077082738759913,-0.0064408952849805,-0.0019278063587046,0.0038947156689454,0.008302219230241,0.0090926984758803,0.0056966705453692,-0.0004826605144325,-0.0066833087494237,-0.0100603058847582,-0.0090142304821905,-0.0039485697895576,0.0029001364929739,0.0084909657936566,0.0103861830279042,0.007852985241299,0.0021225394575242,-0.0042774292941543,-0.0087155308639024,-0.0095599003894574,-0.0067206118748668,-0.0015048982627031,0.004028333280626,0.0078840635566955,0.0088094991924523,0.0066405107441193,0.0022540000035691,-0.0028096030556203,-0.0068870526906133,-0.0086947490738608,-0.0076541851440529,-0.0040142759023379,0.0011919648112938,0.0063467340848363,0.0096410973751262,0.0096608871979315,0.0060155637537763,-0.0002839121152807,-0.0069882655302343,-0.0113919332059966,-0.0114766808303483,-0.0068989083579704,0.0006973882853059,0.0082664207603909,0.0126345226184474,0.0119029233232219,0.0063281879659197,-0.0017556280029016,-0.0089666922648916,-0.0123799186846383,-0.0107822450861432,-0.0050926863453696,0.0021873686305637,0.0081459740991055,0.01066780363413,0.0091639989706868,0.0045911144969442,-0.0011405054109982,-0.0060161079148786,-0.008613614622629,-0.0084020366448737,-0.0056635395784442,-0.0012475289414147,0.0036475559305089,0.0076376536971221,0.0093885445054347,0.0080268692778747,0.0036259787896868,-0.0025384434688112,-0.0082591416473806,-0.0112198706549139,-0.0100328237115292,-0.0049564341513172,0.0021224041246591,0.0109544072268818,0.0115495829444689,0.0101763251172249,0.0048626760166006,-0.0023331514367956,-0.0086829866322207,-0.011861065855022,-0.0107835949748468,-0.0059276703271671,0.0009361924511902,0.007433235669238,0.0113950799313018,0.0115147673238106,0.0077003755004101,0.0010957601536576,-0.0062223924559428,-0.0118339267337937,-0.0137274088163172,-0.0061300781403806,-0.002011628903352,0.00347278205881,0.0098434271409788,0.0146053437952878,0.0093940073019462,0.0028420551568649,-0.0048363858612898,-0.0104724493102606,-0.0118391008950652,-0.0086140200781633,-0.0024209809353012,0.0040334578539078,0.0082454347015827,0.0089561215277577,0.0064813590669043,0.0022877189887544,-0.0018425618513639,-0.0045857848611512,-0.0054565761832876,-0.0047276864594856,-0.0030567210777803,-0.0010823429295274,0.0008009244610179,0.0024234413399013,0.0036594584081786,0.0042556147122092,0.0038337557904253,0.0021226828141576,-0.0007011164495893,-0.0013398486532013,-0.0061043936452727,-0.0064585303564247,-0.0045464270406814,-0.0009501466323015,0.0029564630830686,0.0055628197442308,0.0082425059320053,0.0058436381933954,-0.0007681051996138,-0.0025414607950829,-0.0029569043696768,-0.0082563252181221,-0.0063166868358516,-0.0029252980545643,0.003210950135717,0.0059429509851743,0.0068884977299475,0.003097764362122,0.0022385971088688,5.196476836931619e-05,-0.0044930813458563,-0.0052450008860379,-0.0040092713798272,-0.0030543095657606,-0.0007259270440995,0.0018013404069989,0.0058309790540301,0.0059079474715417,0.0043258647964669,-0.0009339637677633,-0.004329294376304,-0.0049530419998595,-0.0043385736936573,-0.0023752496304114,0.0032427916682323,0.0042762092196992,0.0021109999985466,0.0006569862917454,-0.002617332952417,0.0004441283966798,0.0016833500923522,9.293793117806344e-05,-0.0012169851019334,-9.423873952908004e-05,-0.0031023005719389,-0.0050769368214365,0.0020836799450504,0.0082867163140107,0.0046178232611945,-0.0021519105102637,-0.0077714421388424,-0.0035926675501944,0.0010316999377477,0.0026962446876451,0.0044934500645069,0.0022549657043835,0.002418043510551,-0.0040027817648597,-0.0033336100264713,-0.00618188441193,-0.0045387958007585,0.0035873706857915,0.0046107452871337,0.0092432026130157,0.004524935207261,0.0029343313001108,-0.006372882032167,-0.0121572270266202,-0.0062930985834873,0.0013577101055964,-0.0028187287863191,0.0031334051545048,0.0104601602872669,0.0096306796030619,0.0077273004975594,-0.0017332089406832,-0.011084012996842,-0.0117648895187317,-0.0095566522437191,-0.0051179781732817,0.0053235757635454,0.0139625399854241,0.0122864079090745,0.0040601547458246,0.001368636500817,-0.0048652501755705,-0.0105229856500912,-0.0108778400218976,-0.0053212390646547,0.0007285885468035,0.0048971949997655,0.008816279978609,0.0134979714642593,0.0041984129402415,-0.0066398049417866,-0.009163309814814,-0.0064070215406414,-0.0028489900175735,-0.0016308555295177,0.0049591189543625,0.0067569419327089,0.0015067318589663,-7.842707347770316e-05,-0.0006204255658006,0.0035903905824592,-0.0054406467825289,-0.0072220760629663,-0.0012023742725161,0.0055349092230042,0.0059943021325759,0.0007878151275256,0.0003151163895356,-0.0023385351555318,-0.0072347945838605,-0.0055433873966202,0.0038296112446801,0.0068360593736165,0.0045048946651703,0.0011387800802053,-0.0022000744827079,-0.0011288605984265,-0.0008631765873562,-0.0032530420464744,-0.0048853018570947,-0.0029750095045019,0.0008665344206413,0.0042096739331175,0.008808799246563,0.0075103665030847,-0.0004566503823633,-0.0049512140759008,-0.0090149097309125,-0.0093884927613676,-6.77057652728999e-05,0.005996647094472,0.005683936615575,0.0033199793542595,-0.0013584396411783,0.0019380006715798,0.002270524321657,-0.0014943381471129,-0.0032309469095573,-0.0052065015723362,-0.0051629165112318,0.0012090915305109,0.0057378703611501,0.0046881128634786,0.0014153847534852,-4.087383062837249e-05,-0.0022944250316492,-0.0015956283269221,-0.0007690812249022,-0.0003324301026446,-0.0016086343649159,-0.0003051858173874,-0.0001753884815208,0.0020052590124748,0.002576483772277,0.0016900616848216,3.8362750566641434e-06,-0.0016312811266856,-0.0025042281486308,-0.0030249714216113,-0.0012998069920016,0.0020104922679433,0.0041418159218519,0.0031996503805945,-0.0001139397692674,-0.0028880521998776,-0.0022972324086561,-0.0011005871440426,0.0001041909447416,0.0007445870520401,0.0006489625063231,0.0001546052827839,-0.0001501315667195,0.0001273840187236,0.0008662328825149,0.0014758950058277,0.0012907467424608,6.495021528629048e-05,-0.0017627339543185,-0.0032323850276774,-0.0033869380298982,-0.0018564326534965,0.000851138917512,0.0060212675108898,0.0047662275020734,0.0037063435366636,0.0005192331183211,-0.0034851154896678,-0.0063937042590061,-0.0066016447317285,-0.0036838332266276,0.0012299463322776,0.0058689609790842,0.0079215623766291,0.0062750608306585,0.0016738584546059,-0.0036335288379821,-0.0070789055793443,-0.0071071809676018,-0.0039162613799328,0.0007538352437031,0.0046000325419426,0.0059393010003566,0.0044763172712385,0.0012959448373999,-0.0018502124884856,-0.0035205554540494,-0.003269513512296,-0.0016994528683298,6.946503033294606e-05,0.0011254596843155,0.0012280157905071,0.00076737813051,0.0003342723638005,0.0002542957714354,0.0004122933500035,0.0004431052695736,9.694726557089e-05,-0.0005163401379849,-0.0009909937543031,-0.0009474312339626,-0.0003593138239852,0.0003858295455098,0.0007604934964714,0.0005003053069852,-0.0001795125565993,-0.000723423048645,-0.0006284120207948,0.0001873985488372,0.001285092848564,0.0019332070937649,0.0015291090670591,-1.2071014538289631e-05,-0.0021025589172237,-0.0036705049842236,-0.0036650914389825,-0.0016762322627781,0.0016738369084951,0.0048713253291316,0.0062088601165318,0.0046996302627086,0.0006885752099237,-0.0042013454701434,-0.0077688928091703,-0.0082235104958912,-0.0050088772668439,0.0008634097662728,0.007089839919585,0.0109060413898428,0.0102473334257611,0.0048154745492202,-0.0034842298534724,-0.0111140355754427,-0.0144010563884267,-0.0113363068123046,-0.0027677953696092,0.0077227781050294,0.0153439079045757,0.0163585567318408,0.0099759576390244,-0.0011232284256603,-0.0119585418082853,-0.0175795116077673,-0.0154134075280828,-0.0064801887017565,0.0051088630975603,0.0141157447452588,0.0166460233413039,0.0119171426017916,0.0024658278431189,-0.0072512375515307,-0.0130664629212436,-0.012953850837355,-0.0076653794641971,-2.3972724446064095e-05,0.0065822474719469,0.0096991685592506,0.0086655959936317,0.0045903739046561,-0.0004023969407582,-0.004241098396822,-0.0057775009705321,-0.0050752426440272,-0.0030504377027395,-0.0007697678268842,0.001108006167809,0.002425218354981,0.0032261515561471,0.00343332294717,0.0028147245591808,0.0012427378256309,-0.0010178334325712,-0.0032558203837917,-0.0045587436239588,-0.0042251614748882,-0.0021383587954063,0.0010719248866275,0.00417495971924,0.0057868151712929,0.004987600134764,0.0018487397334369,-0.0024278059473386,-0.0059283187049851,-0.0068953351578412,-0.0046451080082988,-2.827264659300005e-05,0.0048752832966042,0.0077203951026434,0.0070387583985019,0.002981538127296,-0.0027029132585292,-0.0074469149557043,-0.0090378453328113,-0.0066440415615539,0.0012720974397249,0.0048309690876843,0.0087838615068976,0.0087915716384185,0.0047760180383424,-0.0015651133493286,-0.0075043860983633,-0.0104298201253428,-0.0089460127932429,-0.0035125689977986,0.0036661152556589,0.0095217438782474,0.0114480351742972,0.0084894449048129,0.0018237878966962,-0.0057182118668086,-0.010893393561156,-0.0114769579476256,-0.0072316912169928,8.29623117100468e-06,0.0071585341316629,0.0112327409761532,0.0106126667090308,0.0056790097362723,-0.0014384740407506,-0.0078128630312052,-0.0109154781198455,-0.0095761698150007,-0.0043926112564622,0.0025197644836065,0.0083498744553265,0.010708164866909,0.0086167673245591,0.0029491744261828,-0.0039043197135578,-0.0090367188030804,-0.0102750736807996,-0.0071351012514172,-0.0010417467171906,0.0053065224062876,0.0091568181365842,0.0089426723461566,0.0049607342343885,-0.0008340685735445,-0.0058029800997978,-0.007879739733909,-0.006484715111442,-0.002655448980897,0.001624948057717,0.0044899202145758,0.0050512285105198,0.0036381046420206,0.0013785944436898,-0.0005506129532509,-0.0015414877157313,-0.0017148889047959,-0.0016107819004851,-0.0016754791975707,-0.0019000397531986,-0.0018348408699577,-0.0009575146505768,0.0008523772467773,0.0030556696878948,,,
0.0062268457252475,0.0082684904836176,0.0068062724297509,0.002553223975967,-0.0001705287059151,-0.0067631216560192,-0.0082101654517104,-0.0065958133379169,-0.0026441285719305,0.002124768810286,0.005970290223447,0.0075240407724241,0.0062265605232001,0.0025290687747266,-0.0021939433860098,-0.0060742217361016,-0.0074742766412496,-0.0057493850908058,-0.0016398533032517,0.0030064481092859,0.0061149631838826,0.0064106405794959,0.0040076801995019,0.0002399485938337,-0.0031206796593707,-0.0047605033102566,-0.0043370306981685,-0.0024205512035718,-3.8191547186654176e-05,0.0018458671001865,0.005152070416926,0.0022464659663887,0.0008898014323437,-0.0008167788511497,-0.0021005240719307,-0.0023551514490078,-0.001465665428001,0.0001053957762165,0.0015450654795307,0.0021079607437968,0.001494426973536,1.767474323844397e-06,-0.0016112000790244,-0.0024836586543523,-0.0020870625986688,-0.000536398611147,0.0014056975396508,0.0051752507053774,0.0024430066941405,0.0006012965190389,-0.002055915363843,-0.0041679119631665,-0.0045325983878471,-0.0002909017917824,0.0003155848392187,0.0032913037328167,0.004674312738011,0.0037724240287987,0.0009542240291686,-0.0025452632157702,-0.0051442472321388,-0.0055553889476655,-0.0033524570441645,0.0007291132927822,0.0049420228132581,0.0072031566925075,0.0061075514638697,0.0017972819688162,-0.0038678195068904,-0.0080853198187512,-0.0085303067810174,-0.0046736484273753,0.0017781224887892,0.007648902084203,0.0099102329353342,0.0072880775892216,0.0009762440748619,-0.0059465203983409,-0.0100879685546629,-0.0069755154261114,-0.0045530308975024,0.0021143351582247,0.0072689690666117,0.008649942610294,0.0059981986971788,0.0009559626259551,-0.0039455896436647,-0.0065887117419582,-0.0061753323969173,-0.0033597060362995,0.0003126328804617,0.0032497419048758,0.0044855437859428,0.0039207483495922,0.0021458607692906,4.107894817380646e-05,-0.0016230978083841,-0.0024357071442363,-0.0023939023664133,-0.0017781689039483,-0.000941690766203,-0.0001287163815024,0.0005881157855268,0.0012308927585494,0.0017613808780915,0.001971887239124,0.0015507089743292,0.0028268608558084,-0.0014798225266102,-0.0031951644065485,-0.0039257298979094,-0.0030760635056335,-0.0008387743733087,0.0017780103792721,0.003493759934136,0.003520288539391,0.0020186929305946,-6.081198553449924e-05,-0.0016195691294945,-0.0020699262119759,-0.0015785695080762,-0.0007871211915762,-0.0002724655894291,-0.0001588207443472,-0.0001375795744758,0.0001763151089498,0.0008665251184869,0.0016115229265922,0.0019066924109817,0.0014144872431044,0.0001884683948323,-0.001340894512291,-0.0025578136076595,-0.0029100642011213,-0.0021330390525126,-0.0003975775196633,0.0016825309008408,0.0032401651310797,0.0035135620172465,0.0022235760040674,0.00224003371747,-0.0031050023096618,-0.0054084039872703,-0.0040209240235208,-0.001336090496808,6.278965584320101e-05,0.00445971106981,0.0036768007797499,0.0022976090962524,-9.701965409365726e-05,-0.0008156919249232,-0.0021127809698487,-0.0013270262759451,-0.0011164747197619,-0.0014434989400777,-3.090778676460538e-05,0.0015256290917196,-0.0007425190066007,0.0015159330556651,0.0010196076411406,0.0019507008882705,0.0022853850271047,0.0003782010983824,-0.0046395925636986,-0.0045962761772357,-0.0017334166173938,0.001196267177651,0.0025494786511222,0.0032937609103286,0.0032360556167826,0.0021770196852475,-0.0030918431019471,-0.0040209251072243,-0.0053647890113994,0.0027026715658879,0.0014857676370947,5.3562802190709245e-05,-0.0010593390181992,0.0015826744421909,0.0078929416656612,0.0018670770720798,-0.002426574962088,-0.0062533242048433,-0.0066403421343357,-0.0042347461460002,-0.000709318853726,0.0066318110612608,0.0084968821075398,0.0086346871425061,0.0049582573551062,-0.0033925644142959,-0.0120201713833006,-0.0164837375720881,-0.0061008569839948,0.0019672296495039,0.0136250164528434,0.015198037044444,0.0077349049086395,0.0006229655863382,-0.0050633525433436,-0.0125084270923885,-0.010148649015353,-0.0068998876710553,-0.0012004267893076,0.002148825545696,0.0098998226382662,0.0175724881495486,0.0107570746609827,0.001479530954854,-0.0088829390106024,-0.0167477535765254,-0.015271897562833,-0.0105218767501071,0.0011777821277352,0.0124916500292607,0.0196474773601424,0.0164315250013605,0.0068783244029877,-0.0072200775408836,-0.0161433374013132,-0.0158865428135053,-0.0125333054997514,-0.0030865667035867,0.0080788348054093,0.0111276287640276,0.0151656707468893,0.0128052985457735,0.0026288226152177,-0.0084055310214361,-0.0141968768292913,-0.0189030203146479,-0.0052827242501282,0.0054021333089265,0.0114901497217477,0.0136358795533831,0.0054002925203919,0.0023850507267994,-0.008184927652042,-0.0110826751325572,-0.0078999664929091,-0.0027019810428656,0.0065062888842657,0.009343137542178,0.0084800304215047,0.0010595011223595,-0.0043980696284864,-0.0061421800896574,-0.0044307825809471,-0.0077448424947843,-0.003699245194897,0.0074009404446393,0.0096403485122624,0.0067341168489798,0.002113470873642,-7.640916665671415e-05,-0.0015497464071354,-0.0054748943379274,-0.0098021399800122,-0.0079954643410332,-0.0050412081456887,0.0021608980577369,0.0107629830249675,0.0155285344360918,0.012837711014752,0.0034714955099168,-0.0074760957505124,-0.0168435949133727,-0.0173412394884997,-0.0106851843403215,0.0017886238218872,0.0101262053913688,0.0161745909043001,0.0151578868024737,0.0065856497773846,-0.0008049373397755,-0.0088636453971064,-0.0140967662156062,-0.0140570370391204,-0.0084660837498103,0.0005669550422129,0.0093834354258258,0.0143427866992899,0.0134192659640655,0.0070855468508062,-0.0019275727787886,-0.0098654846092934,-0.0135807120053087,-0.009333267971647,-0.0057390582271028,0.0018323805961389,0.0101358963308428,0.011962180405876,0.0069435639773366,0.0015753780313044,-0.0040108002743436,-0.0072943329197477,-0.0070570546201112,-0.0038762915351139,0.0003380462509584,0.0034707068457283,0.0043192879761836,0.0030612311708552,0.0008792633691317,-0.0008954214264018,-0.0015238157947346,-0.0010898522383003,-0.0002350749706242,0.0003221102314156,0.0001964713226226,-0.000483751713175,-0.0011727359417864,-0.0012379794303913,-0.0003775912142219,0.0011123902117669,0.0024195575940044,0.0026518335423451,0.0014001427021795,-0.0009141394428478,-0.003152086072363,-0.0040214948159061,-0.0028129868236914,0.0001057353742501,0.0033569381035274,0.0052040940603696,0.0044689298623995,0.0012212240082464,-0.0031419966644408,-0.0040125483031622,-0.0071210534264683,-0.0044626412791306,0.0004141197969273,0.0053560872275109,0.008055586635193,0.0071045585389452,0.0026904242671503,-0.0033912654953233,-0.0059603432816805,-0.0101573664994769,-0.0075588872644388,-0.0016244555287216,0.0051978892408346,0.0099957758715922,0.0106249035620031,0.0066394009232418,-0.0004645972352208,-0.0077909793333931,-0.0097004901040801,-0.0116795594663066,-0.0063010811196826,0.0017471427454248,0.009093102587617,0.0126441010177902,0.0109396349513459,0.0047645464647437,-0.0032599574133689,-0.0098675123709901,-0.0125183651264712,-0.0103412270006641,-0.0043244962410903,0.0031989291996255,0.0094793793578489,0.0123166964238985,0.0107509035265148,0.0053115495116605,-0.0021779828393506,-0.0091477119984131,-0.0130608247827859,-0.0122765336166556,-0.0067583438530656,0.0016886075423353,0.0098980656182439,0.0145096972880293,0.0134135771886943,0.0068132580157888,-0.0026786557163069,-0.0110796001113806,-0.0148006749059018,-0.012304802974341,-0.0048297701449029,0.0042044722099433,0.0108254955610994,0.0123744945188649,0.0086825899923973,0.0019734960707527,-0.0044225269778354,-0.0078077391153635,-0.0073416148823389,-0.0041401712964817,-0.000343724624366,0.0021797791357818,0.0027303912215031,0.0018643420562183,0.0007868105497879,0.0005084053943679,0.001249508191036,0.0023585298848038,0.0027309755313443,0.0014999739082046,-0.0013483609136345,-0.0047740589431962,-0.0070673933024171,-0.0066898176107682,-0.0031637071504724,0.0024780273150035,0.0079811915500732,0.0133022098799179,0.0092421634090996,0.003313004778164,-0.0050163619721775,-0.0124176492266128,-0.0155203608676866,-0.0099419387767473,-0.0038722344382084,0.0069166130283644,0.0153460280966915,0.0175653604752652,0.0122847558739635,0.0015245070207622,-0.0101576039911762,-0.0176840253488174,-0.0177819603769464,-0.010481096442199,0.0009438583890742,0.0115305572398197,0.0193810825534203,0.0150124145199098,0.0070509558149878,-0.0034024538937507,-0.0119284556569581,-0.0152149947464785,-0.0123503242098501,-0.0049597553569534,0.0037241561810116,0.0103066986819829,0.0125224560149398,0.009912024929422,0.0037663536895969,-0.003495667679145,-0.0092173680291773,-0.0088891145917735,-0.0093225553533507,-0.0038875719152446,0.0028211308461599,0.0082504647190512,0.0103229846329263,0.0082505118420175,0.0028907113427214,-0.0035746804748895,-0.0085428365778684,-0.010069100076306,-0.007629546167811,-0.002254876096661,0.0039578526118656,0.0086833643535471,0.0101947948374976,0.0079080543832967,0.0025433154198176,-0.0040731159877125,-0.009518064037633,-0.0115467815353167,-0.0089986907225372,-0.0025009262793894,0.0054840765518798,0.0115321138598186,0.0128078845833791,0.008534088025718,0.0005179885130423,-0.00765383053511,-0.0123633848911282,-0.0116992559143121,-0.0062629388257465,0.0013044427607461,0.0101882682669922,0.0103626621752603,0.0085217134350998,0.003243322560075,-0.0030854399412835,-0.0078008166293976,-0.0090189833628704,-0.0063544682160566,-0.0010699204224489,0.0044332556857409,0.0076543143937767,0.0071593978044693,0.0033047559793109,-0.0019158979509994,-0.005883249333358,-0.0067040476553389,-0.0041666695143949,0.0002167419950437,0.004083350388519,0.0055054842045532,0.0039789216626652,0.0030719793647036,-0.0028267837958763,-0.004630119857794,-0.0043092420792527,-0.0024305547818588,-0.0001043661058455,0.0017203243557543,0.0026498730811036,0.0027690687114225,0.0023115403852257,0.0014139195751364,0.000120977462112,-0.0014375375860126,-0.0028969565020863,-0.0036869801655801,-0.0032636784267815,-0.001442535862467,0.0013460314856802,0.004063305974939,0.0054285053416164,0.0045532945246383,0.0015293328217224,-0.0024329892433816,,,,
-0.0001169986419709,-0.0067886195176689,-0.0107391077899671,-0.0102228418875996,-0.0053955454544436,0.0017628607808276,0.0082784007828579,0.0114266693831216,0.0098846889801018,0.0043003851480928,-0.0029838518766271,-0.008944877867555,-0.0111756059117368,-0.0088810700902718,-0.0031485101897206,0.0035866523476616,0.0086069466009628,0.0100344187639133,0.0075370502830872,0.0023515632375913,-0.0033385459081254,-0.0073564341446909,-0.0083834360622448,-0.0063586640552195,-0.0023183991342891,0.0021591806879342,0.0055841344826399,0.0069871709112729,0.0060736582393313,0.0031944315384318,-0.0007489000761319,-0.0044676171476814,-0.006619889804328,-0.0063252064121633,-0.0036357268993541,0.0003758576792229,0.0040649328472021,0.0059855128890871,0.0055395392373523,0.0031558289786856,-3.733770488333272e-05,-0.0027982383003003,-0.004282905086141,-0.0042620130834009,-0.003027580496703,-0.0011353888619801,0.0008364995296516,0.0024193993917856,0.0032963463504165,0.0033182770127258,0.00251733824095,0.0010941628332401,-0.0006344976336889,-0.0023007244770649,-0.0035309218703544,-0.0039822498935542,-0.0034119248103807,0.0006814717440262,0.0003795904420713,0.002325623686342,0.0030403614090252,0.0068316860554115,0.0065374382953738,0.0004011896759251,-0.0052150713058607,-0.0092337868133545,-0.0082342809790764,-0.0047626879410824,0.0026513818651156,0.0048086080113402,0.0075321293355224,0.0074224870153534,0.0047098290303699,0.000519507171866,-0.0036967883164761,-0.0066856322904625,-0.0076643373365132,-0.0063775553204985,-0.0030893249710161,0.0014161313797697,0.005893490570233,0.0088728864547976,0.0091057295923193,0.0060991432852891,0.0004987599786105,-0.0059264343573815,-0.0108022010829727,-0.0120356185501841,-0.0087256676233191,-0.0016955315614783,0.0066301259299245,0.0130311445374335,0.0147325371813773,0.0106183270457009,0.0018939971288694,-0.0081750808965921,-0.0154627728232759,-0.0166973876166768,-0.010977212326191,-0.0003805382408939,0.0107116461695771,0.0174314712817968,0.0166607833344897,0.0086210214667791,-0.0030846722172293,-0.0131293585559023,-0.0170241129090599,-0.0132564925285365,-0.0039143366594853,0.0064659029549483,0.0131677708257462,0.013501712383443,0.0078856360496283,-0.0006201981386694,-0.0079488179347211,-0.0109487893295838,-0.0086989708592205,-0.0027131047219435,0.0039350086034675,0.0080953341572728,0.007957323330639,0.0037960202657,-0.0022344744209749,-0.0046447303612735,-0.0085326732167813,-0.0057053020184827,3.368309329128397e-05,0.0059823264929958,0.0092280850369265,0.0079739114450632,0.002456198293267,-0.0049974320161566,-0.0108905797561815,-0.0121362407879736,-0.0051235277903081,0.0009826373843276,0.0097722966557841,0.0144007259533624,0.0123087645430012,0.0041590894092452,-0.0063294513569949,-0.0141610913540881,-0.0155740875780194,-0.0099446381711535,-6.93859939170424e-05,0.0092824157764268,0.0137355883751391,0.0113759084877649,0.0084197620086113,0.0012313826079626,-0.0087680981435562,-0.0116000879343597,-0.0120752972897737,-0.0072940144682318,8.685672823987312e-05,0.0080465968970179,0.0082712872104059,0.0082906021548517,0.0066812250270851,0.0017839502517982,-0.0032104793078199,-0.0053396664972571,-0.0086691355155995,-0.0073236545678769,-0.0030887759165312,-0.0007758084412526,0.0052204712101746,0.0072068444341881,0.0074245708229442,0.0071382206725259,0.0004784820390205,-0.0017758168461619,-0.0076835292131032,-0.0100172980445345,-0.0090336184397844,-0.0032307923619427,0.0033979285582866,0.0123397558010809,0.0128353948338323,0.0063054687135763,-0.0017868687020743,-0.0051997994889836,-0.0111095483047221,-0.0111960620210087,-0.0019854722185908,0.0042200094607542,0.0065150988481629,0.0049256807474875,0.0037310959483151,0.0044886098441373,0.0002952666893152,-0.0036492928751249,-0.0062395277104382,-0.0080710201201636,-0.0015127925685689,0.0012087191058313,0.0057663538604892,0.0064110690912386,0.0039576194795627,-0.0002561906804598,-0.004235996780271,-0.0062259371724615,-0.0029804046265184,0.0029439903786274,0.0033056546746903,0.0008652694891606,0.0009897192926124,-0.0025771168025704,-0.0051300771972456,0.0017014840397721,0.0100041874520503,0.0044810183038618,-0.0044801504528865,-0.0050114549718704,-0.0100072486205578,-0.0104372965498179,0.0063108223047013,0.017132332190162,0.0113436964569035,0.0019223352811476,-0.0061184038056544,-0.0086535760789679,-0.0116936811112428,-0.0094766267466367,0.0013354955008601,0.0124598145417966,0.0108493034669618,0.0058619231454986,0.000202111842688,-0.0049649790151259,-0.0024960457616983,-0.0069658503716175,-0.0047898233988411,-0.0058573553465802,0.0026496178997357,0.0059405860095419,0.0066153850557653,0.008542223489983,0.0025368190364341,-0.0046360504065728,-0.0081928474044676,-0.0064124485212083,-0.0034817024451234,-0.0004678222201799,0.000349306166377,0.0086558724570234,0.0099336944418283,0.0010504904609451,-0.0021093277170228,-0.0013660058549323,-0.0051210981558321,-0.0078264701760918,-0.0065429864163685,-0.0006882261378752,0.0060920729298393,0.0099045937014676,0.0081656917336497,0.0031250440610561,-0.0008416562886775,-0.0051848718611622,-0.0122900094832498,-0.0087983491706545,-0.0030569626203094,0.0003362086114084,0.0068835261722063,0.0179914453339957,0.0124913278991576,0.0015602894658476,-0.0081111730901083,-0.0152308626325629,-0.0163733555384227,-0.0065234974051233,0.0034175057415467,0.0112563052124453,0.0121799948343724,0.0142870533482982,0.0074994014055498,-0.007072212102824,-0.015140121577326,-0.0145908491685371,-0.0062734252301105,0.0005346479964776,0.0069812355026235,0.0082254240284989,0.0073174202991118,0.0082147091323537,0.004632445606087,-0.0063406755528297,-0.0129025025595314,-0.0087264316124331,-0.003325895640965,0.0020020157535357,0.0072723533284911,0.0075058285983161,0.0013670798402401,0.0013485449107282,-0.0001002271418677,-0.002548255665112,-0.0039379393755064,-0.0040225894516177,-0.0016608461409261,0.000878760099374,0.003998920815948,0.0040755452610425,0.0010677127448341,-0.0014900689180094,-0.0023365408159604,-0.0006302923609858,-0.0005101543720852,-0.0022877360241085,0.0011583798058092,0.0024499482212692,0.0021203137983088,0.0007173959185565,-0.0016754071277432,-0.0031128068337192,-0.0048506977430989,0.0015161937122051,0.0054195129970427,0.0071606632375512,0.0006017403221898,-0.0050526843793266,-0.0060503027546344,-0.0067482940998406,-0.0003269755596976,0.0064271111962386,0.0067244117529576,0.0035733791508113,-0.0008920487750218,-0.0005568498653746,-0.0003915954496679,-0.0049074007019623,-0.0052255422148173,-0.0039601274322173,-0.003067886094526,0.0046181970026751,0.0096065583600756,0.0081488278146156,0.0054224094346748,-0.0018765017098337,-0.0116222582637465,-0.0121408831850271,-0.0065787679735071,0.0027567413922881,0.0102111371046948,0.0091667132063344,0.0048337584333798,0.0010057416983093,-0.0047277744078166,-0.0064336799445736,-0.0074228489290805,-0.0021748793443878,0.0019169816122366,0.0061556739775379,0.0043331429620655,0.002625554673186,-0.0010312347112345,-0.0007566864463567,-0.0021856316629454,-0.0042696993137984,-0.0046863415878036,0.0032056920488586,0.0034508137224578,0.0021251706037639,0.001346285644057,-0.0009788551163046,-0.0013264877856261,-0.0012994067765798,-0.000305270845651,0.0011159766622423,0.0023863490687513,0.000713790009231,-0.0011727719840342,-0.0046681271340412,-0.0038370181838198,-0.002981113313744,0.0044275442901475,0.007007249923296,0.0073077601173678,0.0016840983060697,0.0003627906329933,-0.0068423878678823,-0.0095189098016087,-0.0081313541418404,-0.0027274800141089,0.0043977003528185,0.0097924412414527,0.0106885748988631,0.0065569930918936,-0.0005555231262781,-0.0071256145235493,-0.0100359173252141,-0.0081547670546806,-0.0027759447868147,0.0032217242876974,0.0069468216655037,0.0069301781543301,0.0037071577513184,-0.0006696667913448,-0.0038447267088568,-0.004418005986555,-0.0025919916135167,9.642229946699603e-05,0.0042492220412561,0.0036837720775278,0.0010356661767759,-0.0023513906228187,-0.0071392711678938,-0.0069141179008286,0.0010171270298319,0.005754688777691,0.0076188611485965,0.0066364490307502,0.0042940598760263,-0.0011140187330339,-0.0071316469934884,-0.010767560537248,-0.0099509101707373,-0.0046159511168313,0.0031396563162673,0.0099556300406247,0.0152444256969485,0.01009097370084,0.0028964217312123,-0.0059576369621908,-0.0127932978058068,-0.0121932603902356,-0.0107679899523284,-0.0025598123053422,0.0066081151347991,0.0130018285024323,0.0139749016921122,0.00903846018752,8.469098381373582e-05,-0.0093417770853307,-0.0105636345331308,-0.0085093775056254,-0.006022250843188,-0.003414420132796,0.0023783280173871,0.0103691291378822,0.011964401852947,0.0114942002301638,0.0027588301075071,-0.0075901981537365,-0.0144250899536191,-0.0145464828239743,-0.0045602311744572,0.0049855051074695,0.0080110941020166,0.0111418222180412,0.0082358853285154,0.0031382750574777,-0.0036254197712453,-0.0086353283592613,-0.0096144286298095,-0.0064192664684151,-0.0010286584856893,0.0034848716856979,0.007039694397304,0.0087923370210154,0.0101806191978877,-0.0006396915762252,-0.0088164518335783,-0.0104090247657668,-0.0082603963457385,-0.001550620920604,0.0046387138176743,0.0080169999266071,0.0075663016094839,0.0039367316987221,-0.0009547990908985,-0.0048918894640481,-0.0063544812042112,-0.0050532883491999,-0.0018395181097109,0.0018253811871661,0.0045049220268203,0.0052677198925212,0.0039188181582849,0.0010007020448815,-0.0024009103312256,-0.0050262573134643,-0.0059245122975953,-0.0048832125781056,-8.55259235226168e-05,0.006988753284813,0.0121835491617372,0.0045831561589279,-0.0044095148727169,-0.0085716682087669,-0.0051795839570703,-0.0029259577493526,0.0007863680268652,0.0010818111751456,0.002763322064981,0.0041869988590011,0.0061119219317277,0.0058853388133578,-0.0018378801295192,-0.0104733752388851,-0.0095221669197302,-0.0051247589028551,0.0032012703525365,0.0087778788352655,0.0054820177838401,0.0030452645034244,-0.0029060046893139,0.0025244876904466,-0.0007084484479212,-0.0026076455226361,-0.0044274088451446,-0.0020598612025131,-0.003695757822848,-0.0060189296789732,0.0005963562192712,0.0137613196020899,0.0140736028630872,0.0026394508284958,-0.0058527894873975
0.0035355616809427,0.0056828127328571,0.0062259698511433,0.0046828217420642,0.0012489720654577,-0.0030833702091457,-0.0067772786374598,-0.0083312707609787,-0.0069243632716046,-0.0028071935809459,0.002731886023023,0.0077764811649595,0.0103952921087498,0.0092994824911668,0.0044131559478298,-0.0028356091298172,-0.0097607343868428,-0.0133322050598302,-0.011526620622292,-0.0045009168126004,0.0051130631432651,0.0131444096300476,0.0157544399875625,0.0113698217713419,0.0016552879941074,-0.0090792204322439,-0.0158493806606029,-0.0154122532692835,-0.0079107908206169,0.0031223411487442,0.0124573039450633,0.0157343093336765,0.0116007819375167,0.0023134613253506,-0.0074881484216803,-0.0131530004760787,-0.0122747366815509,-0.0057121494516469,0.0030336215446247,0.0096550026365719,0.0111286427887539,0.0070730937653639,-0.0002102389681935,-0.0069697071958265,-0.0098799677849358,-0.0076421207097828,-0.0015412268778652,0.0052725794399201,0.0093802429054416,0.0087617329246308,0.0037346470199071,-0.0032552996435347,-0.0088492372124201,-0.010381643809195,-0.0071072705893955,-0.0004966386109317,0.0064883104391728,0.0107584229931093,0.0104614922985821,0.0057494675774008,-0.0013520481586939,-0.0078721718565288,-0.0111845539135494,-0.010082477208404,-0.005182345326674,0.0014713884697132,0.0073472268827836,0.0104315464008372,0.0098606783805353,0.0060190575237678,0.0002399683449264,-0.0056465443138617,-0.0097758322374547,-0.0107167400645651,-0.0079448516615327,-0.0021845369169013,0.0046307770452923,0.009948620312909,0.0116119229877441,0.0088536221544785,0.0027347551786701,-0.0042687997547042,-0.0093710450740968,-0.0107166015938541,-0.0081163576928588,-0.0029323169905135,0.0027298406233407,0.0069824956147427,0.0087453019047501,0.007803098283016,0.0045708681791385,-0.000101266898387,-0.0049861266340649,-0.0085828139237458,-0.0069970557779062,-0.007082972123993,-0.0019556505730175,0.0040589891614119,0.0085911491628904,0.0097288918065783,0.006917499469543,0.0012950784390278,-0.0047597418788261,-0.0086821681336065,-0.0088799032425569,-0.0054454091613966,-7.827671018256707e-05,0.0047598490201078,0.0070543853002148,0.0061881176863597,0.003112477142306,-0.0003463121743542,-0.0026019992003984,-0.0031375710484437,-0.0025570044258327,-0.0019137222215369,-0.0018470701866347,-0.0021315905922449,-0.0019030964101336,0.0021199711899651,0.0023863282048919,0.0052678328900453,0.0065629451640246,0.004960523854268,0.0004195985257129,-0.0055090823553197,-0.0101780223805814,-0.0110333885522234,-0.0069717838221592,0.0008430875946557,0.0092265875731058,0.0143101585853405,0.0134081028439053,0.0064788752787458,-0.0036488489699177,-0.0125037246685243,-0.0160743100984733,-0.0127211351708367,-0.0039482866543318,0.0063162553368201,0.0135617414162479,0.0147733937039162,0.0097567506032893,0.0010818615218379,-0.0072769100020237,-0.0118611737932956,-0.0112206971313679,-0.006297699790244,0.0003353382326754,0.0058427820021797,0.0083501450393191,0.0075000998494308,0.0042530111751197,0.0002065376371117,-0.0031584184837588,-0.0049722250731724,-0.0050745707842986,-0.0038036295605077,-0.0017021099748666,0.0006647870100305,0.0027474612267602,0.0040227640649312,0.0040982004366689,0.0028964289464975,0.0007743746589176,-0.0015616151495728,-0.003331202032465,-0.0039809043475059,-0.0033473051751052,-0.0016583299189962,0.0005498853049283,0.0025586366136914,0.0036636617611512,0.0034380564973386,0.0019458186168189,-0.0002439105621977,-0.0022829012652677,-0.0009158962716644,-0.0033284122137088,-0.0022551695769061,-0.000773881194736,0.000521317861507,0.001255981300566,0.0013683326518938,0.003548497848348,0.0005449266081908,-5.043817420535606e-06,-0.0005771861443474,-0.001158994873538,-0.0016615948797711,0.0005859033769414,-0.0017888135961681,0.0011271127357193,-0.0010336282803038,-0.0012883849947587,5.765256167250814e-06,0.0003399807999468,0.002892391463566,0.0034744502669678,0.0028102349862717,-0.0013821678644294,-0.0023655292761606,-0.0053490844417918,-0.0033153440882917,-0.0011165749034881,0.0013220694856332,0.0036204392691977,0.0047363497514933,0.0033349533832347,-0.0013379679402014,0.0011838258921371,-0.0041681533962627,-0.004856626062224,-0.0039762099178463,0.0008382925774051,0.0032187884252774,0.0030237632712801,0.0057963385762776,0.0012947070287697,-0.0047808442493503,-0.0038175547796907,-0.0025831874893912,-0.0011757349440121,0.002118033608607,0.0043186389455107,0.0035552995135001,0.0012074800490514,-0.0034993082101274,-0.0049306622626382,-0.003855508049456,0.0001513369886997,0.0045221290107647,0.0051269694399078,0.0017424444984298,0.0004883096905075,-0.0036134171744933,-0.006532816661536,-0.0023954192130219,0.0032752467326227,0.0043709302751397,0.0043071333948135,-0.0006287885225503,-0.0031858363294359,-0.0044121426027407,-0.0002200942301939,0.0013872485632909,-0.0013396864124672,0.0031917846624899,0.0037422763736932,-0.0012750492465972,0.0018499571097457,-0.0014420141343506,-0.0025694353398248,-0.0018920680586005,-0.0050871251498931,0.001033638604064,0.0011680161284043,0.0031276652781462,0.0038996638240964,0.0037894761881964,0.0043355026365151,-0.0006925097504536,-0.0067452983994464,-0.0095329861113824,-0.0076491533432133,-0.0012627546845083,0.0056084239795553,0.0111248826493356,0.0114332469316299,0.0039741713049921,-0.0051590194887502,-0.0084620083539574,-0.0083398709382922,-0.0061786150322207,-0.000477082114996,0.0031008724409532,0.0057666842959502,0.0069565380229616,0.0037065182426894,0.0026581824081812,-0.002336811264615,-0.0075723559911748,-0.0053202659303185,-0.0021391665056411,0.0012981323446725,0.0028773030627088,0.0048622554576362,-0.0018347067697783,-0.0009779730130572,0.0006978870172443,0.0018990154634341,0.0013750801541662,0.001937909807248,-0.0013727963605419,-0.0045130688760419,-0.0034181487967624,-0.0007133717584362,-0.0012246285293956,8.15763907256346e-05,0.0034303025164117,0.0066685740371629,0.0047221767085178,0.0002540553482969,-0.0044301864235585,-0.0039359844772274,-0.0051586600863587,-0.0029171453416071,-0.0001735381267715,0.00204401907278,0.0026548022934193,0.0037416251513493,0.0058556326738898,0.0030846285597699,-0.0033078726310868,-0.0055565411439348,-0.0039506291688639,-0.001842275317549,-5.119676862337226e-05,0.0009989234674556,0.0013683717661457,0.0014055327864716,0.0014246621609204,0.0014703989415135,0.0013055994277192,0.0006241278005126,0.0018392115394032,-0.002265670706629,-0.0035937766003658,-0.0039469957326302,-0.0028590308884089,-0.0004312189690947,0.0025473166101775,0.0048243675628294,0.0052138258297251,0.0032243407221398,-0.0005314591557643,-0.0019553127031066,-0.006686641342575,-0.0060700297558414,-0.0027873496150639,0.0016866728938373,0.0052836372262511,0.0063561532336343,0.0044717406116544,0.0005793738799549,-0.003486402268486,-0.0058699052765146,-0.0055120220507475,-0.0025889403581185,0.0015753257390652,0.0050755660954757,0.0062574917661524,0.0044832988365876,0.0004819183136518,-0.0039225242199636,-0.0066307005937396,-0.0062748612523579,-0.0029195240291943,0.0019178427546576,0.0059724507239611,0.0073326255713973,0.0053763613848638,0.001052764248943,-0.0036312927489345,-0.0066191706868979,-0.0067527579166071,-0.0041919489145564,-0.0001774060277691,0.0036366647036367,0.0058908338112026,0.0059543965980209,0.003982865050198,0.0007072430594158,-0.0028475180306487,-0.0031113324816489,-0.0067179150265119,-0.0057415987365652,-0.0028480822466027,0.0011583330242296,0.0049497717475903,0.007051474255849,0.0064337725047565,0.0055628732582257,-0.0019256994452658,-0.0040974946632616,-0.009028571561995,-0.0081873772688964,-0.0043988822866199,0.0008435377314881,0.0055618825614758,0.0081069185317041,0.0077260417044449,0.0047035928162212,0.0001415928530631,-0.0044368345657084,-0.0075201868892349,-0.0080270327055867,-0.0056770071286684,-0.001199661064889,0.0038026623759761,0.007423485077187,0.0082602932887523,0.0060353889782705,0.001673417014706,-0.0031653686369238,-0.0067769888356135,-0.0079836051964128,-0.0064289013744585,-0.0026223771930328,0.002206597428584,0.0064227981279154,0.0084570179190941,0.0073683083067051,0.0033213364177239,-0.002280045429046,-0.0072055492400472,-0.0093073575237831,-0.007543648528066,-0.0025697177348184,0.0034817721253374,0.0079738292743984,0.0090008037399802,0.0062485369502637,0.0010646865143517,-0.0042425741568645,-0.0074834404447831,-0.0075144235729442,-0.0046217628669377,-0.0002614558888877,0.0036602952893069,0.0081078819366574,0.0049824609056242,0.002286824110649,-0.0011088822511142,-0.0035841417065125,-0.0040674720250559,-0.0025949752657029,-0.0002701530734113,0.0014115962275269,0.0015052789191497,0.0002239295473573,-0.001216705483848,-0.0014406001690744,0.0001058020601328,0.0026776874981192,0.0045916590213544,0.0042349113195407,0.0011338797701881,-0.0035695019314268,-0.0075623453515868,-0.0085274757371409,-0.0054170622047679,0.0008474616397367,0.0076344807858977,0.0117381538652862,0.0108963595058489,0.004990223220536,-0.0036929085158107,-0.0113639974288367,-0.014458741468471,-0.0113618831703702,-0.003241957284645,0.0064483447256652,0.0135499068836486,0.0150586210453982,0.0103936789997614,0.0015531341119854,-0.007818601498434,-0.0139749648618572,-0.014553421234329,-0.0094321833876801,-0.0006921217436522,0.0082308431895392,0.0138621508892848,0.0140108754316857,0.0086300415706221,-0.0001287096648004,-0.0087391652746949,-0.0137199058356423,-0.0130790979417169,-0.0071613928862271,0.001492392747838,0.0092367302394235,0.0128993225209313,0.0111414605408212,0.0049754548665318,-0.0027915791674094,-0.0088910688336674,-0.0110381891198841,-0.0088130503436693,-0.0036212082344404,0.0046423914588721,0.0087052852279347,0.0072694495066428,0.005352364217219,0.0015748211609539,-0.0024668273129154,-0.005381002332677,-0.0063781578327768,-0.0028452313480375,-0.0027563729452911,0.00050365935138,0.0034036832162742,0.0050395270095602,0.0048618402879278,0.0028663477914722,0.0021651673595771,-0.0036783606150875,-0.0059936312347447,-0.0063684552030779,-0.0044717584715755,-0.0007594008924586,0.0035687195518559,0.006907033167475,0.0078037479464726,0.0055755797050864,0.000742634679661,,,
-0.0051542469776175,0.0026003944956202,0.0087572143422238,0.0105314756614602,0.007466589630882,0.001451807914546,-0.004465209606612,-0.0077081849367934,-0.0073267926074495,-0.0041471377455733,-2.1412382646665538e-05,0.0032528449214986,0.0047137421589295,0.0043912251179128,0.002934537034361,0.0010731984805066,-0.0007355230026941,-0.0023255635126199,-0.0035925519442331,-0.001765216848017,-0.003927134378322,-0.0022940675607138,0.00046104087799,0.0035406021238173,0.0056891364732634,0.0057409501533559,0.0032964976203885,-0.0008933661765318,-0.0051279412824645,-0.0075046492802676,-0.0068429952525789,-0.0032872775710227,0.0017364493270089,0.0061705662085869,0.0082303941182988,0.0071281613553726,0.003328909468998,-0.0017071985708324,-0.006131817810947,-0.0083900530116274,-0.0077213463686349,-0.0043478505220867,0.0006423828160489,0.0056329533028738,0.0089384392583889,0.0092952808719899,0.0062972870946966,0.0006682125602703,-0.0057737991898207,-0.0105913133168108,-0.0116204976700312,-0.0079872100508638,-0.0007416440163235,0.0073288476808781,0.0127768078543915,0.0130448165880573,0.0077549432787639,-0.0009530162937698,-0.0093016168381804,-0.0136141784842884,-0.0120563719410976,-0.0054841362966199,0.0030263146659809,0.0096868147316949,0.0117548068978456,0.008699223755152,0.0047718357492386,-0.0044847885169539,-0.008716592224935,-0.0089738164818167,-0.005691875897184,-0.0008027788978898,0.0033299905302484,0.0051043577701848,0.0043584752623681,0.0022014839645801,0.000173060123616,-0.0007105263561275,-0.000453998305225,0.000113546236291,2.8471964338242332e-05,-0.0010991069872852,-0.0027954129903097,-0.0039905681102012,-0.0036407720994844,-0.0013416903982413,0.002356807717866,0.0060535368657866,0.0079993808871319,0.0068667844715711,0.0024994648749516,-0.0037495632593705,-0.009384597695022,-0.0117936262213466,-0.009491930530489,-0.0029524932892557,0.0054343711865088,0.0122894984850264,0.0146436838423033,0.01120080380663,0.0029622453397074,-0.0070252983993268,-0.0147493512758851,-0.016818673692284,-0.0119864186692241,-0.0019141068835301,0.0093198388108631,0.0169004994422402,0.0174333265977466,0.0105524758353009,-0.0008190433365733,-0.0117252939333913,-0.0174011628325182,-0.0154440294020256,-0.0069069258820265,0.004224524449068,0.0129295287420853,0.0154954429677512,0.011162542754095,0.0023095206110253,-0.0068243970968956,-0.0121833210346247,-0.0117058213511484,-0.006096857450642,0.0017042261151153,0.0080128560308311,0.0101025925016339,0.0073555611696246,0.0014007854279908,-0.0047567454790482,-0.0081904383151186,-0.0074220929112121,-0.0030726961890468,0.0025140864145864,0.0064868497398112,0.009406944296746,0.003636589509599,-0.0016731736070029,-0.0063923652985589,-0.0081562133755045,-0.0059972423755452,-0.0008233842347212,0.0049793753982395,0.0086405241313332,0.0083183801123167,0.0040296770215883,-0.0022878152689224,-0.0076780380920957,-0.0096247446539159,-0.0073175622625648,-0.0020634199020954,0.003347733009705,0.0084588340224673,0.0113513867687338,0.0071490951018404,0.0001783196973571,-0.004047396062851,-0.0097493643884866,-0.0098386962618116,-0.0063868875693855,-0.0036614243727145,0.0047627405115663,0.0106389985546484,0.0112799999879416,0.0087605473398378,0.0021645660754732,-0.0055043096009946,-0.0110406802290659,-0.0122485700412586,-0.0086945525429111,-0.0017839293869294,0.0058115907650628,0.0111542216319669,0.0121309017583313,0.0082606931935633,0.000926291299514,-0.0045867671896807,-0.0101433158420083,-0.011039252591481,-0.0094582391568729,-0.0021527648616075,0.0052474001405813,0.0095286907857595,0.0112881462825475,0.0082140794565021,0.0028736543132268,-0.0039923595938214,-0.0120020267531464,-0.0102933426170053,-0.0072443324729263,-0.0003711103826988,0.0073012989104533,0.008346801351826,0.0066508689741398,0.0030403048848526,-0.0004032830854108,-0.0032082652741462,-0.0033099109617942,-0.0045836566009516,-0.0050871065571729,-0.0013205060783017,0.0028502862466378,0.0046504222948011,0.0019196332422537,0.0002415693117972,9.760716956566755e-05,0.0008817358932035,0.0014835443444049,0.0027950262317939,-0.0034607957691738,-0.0027845165721561,-0.0041741028281281,-0.0061623391708208,-0.0002046157787089,0.0042703675680425,0.0070421009408361,0.0072550434377729,0.0039418746168172,-0.0056454076138152,-0.0039026830337994,-0.0041966887194086,-0.0028172234377198,-0.0039905379663992,-0.0006344564405143,0.0040265225321573,0.0035800738475225,0.0041906283149767,0.0049185364848534,0.0029001151034731,-0.0061119130766031,-0.0064957205006326,-0.0014659938175143,-0.0017553417293551,0.0005310140146367,0.000431646158142,-0.0004963438972496,0.00413871571883,0.0067405928795582,0.0022951247191796,-0.0044431125730929,-0.0041159773533651,-0.0016815371998943,-0.0023504457634979,-0.001700713010843,-0.0023312300365477,0.0057988297313598,0.006732058596162,0.0063381718367527,0.0007103065514251,-0.0074158060285639,-0.0085258459690382,-0.0078652349827345,-0.0014905962170059,0.0020177466520529,0.0111092187932434,0.0100477880230569,0.0082232383599159,0.0013588569505451,-0.0086261532058285,-0.0146305007109165,-0.0123491839298375,-0.0039783654890925,0.0039021526614641,0.0077804272606943,0.0110395989564019,0.0116505432898578,0.0100490401793435,-5.615289647216299e-05,-0.0113330500365103,-0.0169825148944302,-0.0146303356890614,-0.0072313249546329,0.0023110480507388,0.0121202104046266,0.0159568800858825,0.0141512841443682,0.0098289399667953,-0.0017870826088627,-0.0146264268744419,-0.015793154649581,-0.0157930402099057,-0.0077292266900432,0.0031450413676926,0.0130750867753862,0.015608834540684,0.015949917605266,0.0073200347054003,-0.0047633911364659,-0.0129946949864758,-0.0156713169691038,-0.0134509853822599,-0.0056250931205792,0.0062688575329904,0.0126645241636474,0.0129352493256039,0.0093744418172992,0.0045961538150467,-0.0047740927492685,-0.0108648098086025,-0.0121494508653357,-0.007013075601745,-0.0024552125477524,0.0039818370000358,0.0102538777558753,0.0078406686606603,0.0043064051251499,0.0006157794389194,-0.00178942141494,-0.0037213654658388,-0.0059480000228231,-0.0028588895888785,-0.0040327125393396,-0.0049720389808505,0.0030887258610076,0.0064292038909954,0.0087019095848929,0.0060236495266772,0.0028019702800914,-0.0030098026824916,-0.0071231211408965,-0.0098297628826061,-0.0093803712422516,-0.0004594390804287,0.0058225005523518,0.0067786585428449,0.0092965176116019,0.0067532999173252,0.001941678106422,-0.0055539902083835,-0.0050190815580037,-0.0057533789101566,-0.0086229015540674,-0.0063413276735358,-0.0008339968073241,0.0079947294530737,0.0126713201741152,0.0086872350839261,0.0049534505480859,5.271301659502426e-05,-0.0061670124713459,-0.0108152930534284,-0.0116478218572889,-0.0079884993195489,-0.0010259994694272,0.0066277009383494,0.0119496341574486,0.0127059508140214,0.0108691272291012,0.0028586631786538,-0.0084729602807351,-0.0148438768038468,-0.016211502922183,-0.0092992442286534,0.0018051241351218,0.0090217603089297,0.0130899611439168,0.0138459185543251,0.0085155082457979,-0.0006025190022648,-0.0097127491645055,-0.0126524578056648,-0.009989986094065,-0.0068244645712786,-0.0010022813279764,0.0066470125037274,0.0108455545887217,0.0104868448137502,0.0063051920341814,0.0003070770020198,-0.0051688972108141,-0.0083232352008279,-0.0083905227359488,-0.0056953372633613,-0.001386354831796,0.0029991630828356,0.0060303352195616,0.0068353257587452,0.0053706821957635,0.0023730833418227,-0.0010094294717278,-0.0037138593403574,-0.0051080993373687,-0.0050392295693993,-0.0036763473507947,-0.0013612341482559,0.0014138701762065,0.0039689200356628,0.005497671258245,0.0053126893699846,0.0031949740292402,-0.0003541541149103,-0.0041519846108863,-0.0042361496066237,-0.0070039063909853,-0.0047391600914052,-0.0007182281196386,0.0035942119940213,0.0065815001049006,0.0070737429567824,0.0048152955049647,0.0006190192301371,-0.0038867059887002,-0.0068746988456025,-0.0070855347015383,-0.0044069636297058,3.5326751118899466e-05,0.0043548959169867,0.0067381184964667,0.0062425440901594,0.0031948320865448,-0.0009828342474094,-0.0044343181290552,-0.0057208036727495,-0.0044665924312695,-0.001483732744716,0.0016870933955671,0.0035731937752598,0.0034820788673152,0.0017735904323967,-0.0004167778412306,0.0006404878425515,-0.001973819595837,-0.0011429778913299,-0.0003256540231292,-0.0002590791158884,-0.0008736443900049,-0.0013608681320023,-0.0008671677498183,0.0007087619501382,0.0024771537987931,0.0031356005477483,0.0019591915616389,-0.0005728306398287,-0.003016776708508,-0.003891344025251,-0.0026185648363549,0.0001364101221521,0.0028821513924062,0.004159508622729,0.0033186664386306,0.0008011732605894,-0.0021627400089731,-0.0042005894995664,-0.0044140916192538,-0.0027036734283605,0.0002483189041318,0.0032498856151055,0.0050288879561297,0.0072113731477976,0.0021940432561951,-0.0017108594416103,-0.0054577427938525,-0.0073498148831005,-0.0063341852988403,-0.0025808476121975,0.0024858132020141,0.00674859092465,0.0107997013413499,0.0062672025934447,0.0012550982807422,-0.0047634435895497,-0.0091716637019278,-0.0098488883444852,-0.0062127329067183,0.0003628072084518,0.0070280001152695,0.010700107188311,0.0095250868569012,0.0038479710842786,-0.0038261597265454,-0.007446546631806,-0.0116346235772686,-0.0081112994870576,-0.0010476063790617,0.0062853090567022,0.0105767369214147,0.0099891139020203,0.0049273515800851,-0.0022342000938626,-0.0082662216115416,-0.0105154657798205,-0.0080515434557937,-0.0020585973816385,0.0047067754691641,0.0091764454511422,0.0093897945313643,0.0054025506833125,-0.0007660449104054,-0.0061454123550511,-0.0082975420259742,-0.0065092040487996,-0.0020505450184542,0.0026297127264705,0.0052839969426064,0.0050122489961965,0.0025530722184858,-0.0003578934823328,-0.0021003174428058,-0.0020671418072942,-0.0008517719341008,0.0003111136609268,0.0004380476960378,-0.0005607991807447,-0.001873245712992,0.0001088922648493,-0.001530534478643,0.0003240551234823,0.0020817251322623,0.0026716741794549,0.0017226540018937,0.002280093835711,-0.0020827918106884,-0.0029592866858927,-0.0025934659703799,-0.0013987321758954,-9.083148516419088e-05,,,,
-0.0052438427157856,-0.0027814039337601,0.0001539649101326,0.0026150501529106,0.0041126672286414,0.0044964221396727,0.0037032057147005,0.0017020746392889,-0.0012523726465596,-0.0043165514246851,-0.0061375407466619,-0.0054985994312096,-0.0021942532291357,0.0025322525441481,0.0064495199493101,0.0075225127260811,0.0050897185884808,0.0002747865982189,-0.0046148602360663,-0.007307048046331,-0.0066789439273133,-0.003194956315037,0.0014524968300277,0.0052043738751334,0.0065437701727535,0.005081424818215,0.0016354865980737,-0.0021855297313476,-0.0047183845194884,-0.0049931220548053,-0.0031530435683446,-0.0003227270065335,0.0020326501020057,0.0029103770375258,0.0022609153725217,0.0008779804743838,-0.0002062466377447,-0.0004049225244756,9.565740866817574e-05,0.0030278078886265,8.531100986023223e-05,-0.0014796719400661,-0.00353044936519,-0.0047772450314334,-0.0040185066246119,-0.0009523884350473,0.0034440555350913,0.0072346033230198,0.0084285665776389,0.0060164161735333,0.0005889049872852,-0.005797614394528,-0.0104651901096133,-0.0112827173651021,-0.0076271678462985,0.0017776292652077,0.0067777597410092,0.0118405020770433,0.0123384042317213,0.0079520085490794,0.0002861068006758,-0.0077663482938826,-0.0131123569076035,-0.0136126364646617,-0.0089217266328892,-0.0007047467609893,0.0079250588043591,0.0136116094035639,0.0141250282480556,0.0092734352409418,0.0009535585567343,-0.007633891535286,-0.0132336323274483,-0.013764870440978,-0.0091003588050902,-0.0011124199593653,0.0070617327283807,0.012276164010019,0.0126401510920275,0.0082413235015338,0.0010196274722028,-0.0061213046680974,-0.0105358746357282,-0.0108376092063934,-0.0072754045747349,-0.0014209789313427,0.0045643133407787,0.0086937914039311,0.0096945517643476,0.0072864071995219,0.0022581459754103,-0.0036784952946736,-0.0083504018288394,-0.0098866551246746,-0.0075249969103652,-0.0020521181726231,0.0044091672297055,0.0092240991305502,0.0103319352867189,0.0071308066366824,0.000794042266384,-0.0061274395696576,-0.0106971271842078,-0.0108195432942854,-0.0062059677171914,0.0013678858714661,0.0087032859960223,0.0125198380770615,0.0109381197284378,0.0044135430517971,-0.0043576022135985,-0.0115631773561833,-0.0139424339117212,-0.0102536587839322,-0.0018920537897157,0.0076263985457374,0.0141279279339762,0.0146048089816061,0.0086244334423321,-0.0013455227673394,-0.0109425002065484,-0.0158692185254268,-0.0139024332537375,-0.0059444351362247,0.0069056910980724,0.0125119374443465,0.0148154482641662,0.0104552974141353,0.0016092629622332,-0.00760876375128,-0.0131071893114756,-0.0126658594075828,-0.0068207070396078,0.0015591016461019,0.0086979243496099,0.0116184718835752,0.0093665503838975,0.0032826932866174,-0.0037247115923426,-0.0085460899551147,-0.0092672368895315,-0.0059717146933242,-0.0005712981587514,0.0067395520505128,0.0063393779323956,0.0051618074338183,0.0018271405441491,-0.0016505225853975,-0.0035820910351775,-0.0034586497029959,-0.0019766021727192,-0.0003603433130535,0.0004866652041994,0.0004644929484609,0.0001693080988893,0.0003493982933269,0.0013001591000062,0.0025708106795801,0.0031669001021898,0.0021484244252348,-0.0007188535454443,-0.0046497684111323,-0.0080552923523028,-0.0043090581933325,0.0002633130722303,0.0025730563980386,0.0057575285134412,0.0070314703916258,0.0070561084270828,0.0030459829828748,-0.0033767101027605,-0.0092988386430332,-0.0117621391210975,-0.0091389393889842,-0.0020343163009866,0.0067551303607769,0.0133241661557685,0.0144026662791516,0.0089985350774127,-0.0008864731211982,-0.0109412593145967,-0.0164524976276471,-0.0146077012165798,-0.0060508375035304,0.005217890844583,0.0137284696643376,0.0178254713102496,0.01418230405998,-0.001489472358432,-0.0121105170874169,-0.0157194525493555,-0.0106149311416385,-0.0031013670220828,0.0033408865350164,0.0098119458605331,0.0095342980953322,0.0053248847305813,-0.0005808820463245,-0.0005342421121022,-0.0048713404329366,-0.0062437809617917,-0.0058407371942428,-0.0009101007857061,0.0024317857958569,0.0062016624525843,0.0038547072203218,0.0014970964520474,-0.0023734406620283,-0.0023748224271324,-0.0036961991920307,0.000138296258866,0.0036099940002079,0.0034586993497104,0.0018512481906509,-0.0035531287330705,-0.0045147157293461,-0.0049952528329405,-0.0013748806148797,0.0016509118295046,0.0060177532230665,0.0078032050046662,0.0057401532256652,-0.0004597695548375,-0.00793029917436,-0.0076357913319151,-0.0049645626221027,-0.0040914595353819,-0.0004711722973452,0.0064698222699295,0.009796895370931,0.0080863838363098,0.0032822585303021,-0.001994802243086,-0.0065170524610854,-0.0116099815088682,-0.0064050488910262,0.0001278530433423,0.0009376679477711,0.0031253806133568,0.0060315022650429,0.0086370510973575,0.0080961248520313,0.0018146805000256,-0.0047906468021551,-0.0110723216265331,-0.0110427799085935,-0.0065655412673152,-0.0026353988089352,0.0068929738293957,0.0104702439821372,0.0113613946752104,0.008820926775306,0.0010637337270642,-0.0077247404303559,-0.0099210710795896,-0.0108839033591701,-0.0073903714201819,-0.0031002179989432,0.0068751745853389,0.0120371928018556,0.0078067156232944,0.0060114540025704,0.0035956728482013,-0.00136031938843,-0.0106485306693812,-0.0108006123273427,-0.0095230166623073,-0.0037285678866036,0.0064453013140815,0.0113920581842235,0.0100273101472515,0.0049898427214998,-0.0019730596543235,-0.0031483102569686,-0.0055489271457225,-0.0077694368326103,-0.0055661121743809,0.0006678588106523,0.0030144463799433,0.0040265857155513,0.0080866174547957,0.0020057363977187,-0.0018441703410197,-0.0012430298168473,-0.002618353504227,-0.0037333480272445,-0.0034545365002354,0.0013514996733938,0.0022089727837498,0.0011421979889535,0.0029322948413098,0.0010937216877812,-0.0008367976272719,-0.0016940713846369,-0.0007837295337059,-0.0031969980220422,-0.0001976649059493,0.001919752559786,0.0046600318464195,0.0029181570977897,-0.0024581782112407,-0.0025106154318767,-0.0058214599766669,-0.0017390963270213,0.0016758527981981,0.0027377118188325,0.0043367912666186,0.0025088740392428,0.0021869940537609,9.720570520327292e-05,-0.0037976253936977,-0.0072342665642091,-0.0043061121580184,-0.0004301810169736,0.0028387278407273,0.0060787438800787,0.0049494576107356,0.0010174041737443,-0.0007334579529659,-0.0017085923515858,-0.000511962226101,-0.003005694544261,-0.0033608183558011,-0.0013711225074836,-0.0024865442741783,-0.000546325522166,0.0032229320373035,0.0052531872370507,0.0050322255366139,0.0052221718710889,-0.0009030773408455,-0.0021663953003818,-0.0072923287454949,-0.007772015211236,-0.0056974227266575,-0.0014784227090376,0.003645815782085,0.0079007857154045,0.0095586347819154,0.0076454906658626,0.0025095080012382,-0.004067884035763,-0.0094348504629279,-0.0111987080974179,-0.0084106892636937,-0.0021356158499728,0.0049786751170642,0.0099414473287402,0.0108040011147136,0.0074668915290455,0.0015553605457597,-0.0044638919914881,-0.0083937000517552,-0.00910026098173,-0.006719354730793,-0.0023521967226322,0.0024679031627935,0.0062709792474575,0.0079874093276473,0.0071435991804465,0.0039700757731584,-0.0005891179042919,-0.0050546874249545,-0.0078424571504026,-0.0078574114396971,-0.0049965529677937,-0.0002791731976402,0.0045168693046775,0.007578165405355,0.007802897547672,0.0052165613999595,0.0008836188402792,-0.0035863342500087,-0.0066630764191447,-0.0073919764681169,-0.0056404764475507,-0.0020874128236312,0.0020205675750443,0.007778400373402,0.0065651615661805,0.005421364107267,0.0022637764256981,-0.0017255659925309,-0.0050565582766263,-0.0065229847713345,-0.0056634203497505,-0.0028991250913577,0.0006964531811872,0.0038634494470966,0.0056214329055197,0.0055392512109886,0.00375727577082,0.0008499546369763,-0.0023473586071723,-0.0048985180665768,-0.0059582151912564,-0.005037881456805,-0.0022760265570144,0.0014653947837501,0.0048282841833515,0.006482513944772,0.0057183651691455,0.0027980004188639,-0.0011370046781853,-0.0045645795112785,-0.0062263541000463,-0.0055997652408373,-0.0030173764984399,0.0005394597505614,0.0038184970712997,0.0056965570560366,0.0055187357503475,0.0033260576783769,-0.0001024114111589,-0.0034744555573088,-0.0054710179595742,-0.0053227281746412,-0.0031868226205031,-8.859204929462869e-05,0.0050613238031362,0.0060941258602184,0.0025741144084912,0.0025142836648766,-0.0028207364577448,-0.004511334207014,-0.0041754772203614,-0.0019235064073761,0.0011528904591242,0.0035178836065648,0.0040021948329276,0.0024274000800269,-0.0003223130688448,-0.0028185304711169,-0.0038754172123572,-0.0031287467592639,-0.0010910240986271,0.0012660276895078,0.0030514390142048,0.0037666651552003,0.003300469106704,0.0017805757242802,-0.0005000282000646,-0.0030250915742279,-0.0050006775724872,-0.005498436691973,-0.0038634512145316,-0.0002197389564661,0.0042665533485069,0.0076648776319709,0.008117607677787,0.0073587724867916,-0.0011831466544033,-0.0075842794292506,-0.0114060978758953,-0.0105939910158705,-0.0051140029148091,0.0028571991570241,0.0098687366224288,0.0128003068074564,0.0103273757348068,0.0035288352704147,-0.0046351840296642,-0.0106936978081673,-0.0122093631238224,-0.0087760712222485,-0.0020580371690233,0.0050600488817196,0.0097555938906505,0.0104018694269233,0.0071037849711801,0.0014769298752089,-0.0041597753638547,-0.0077699365128883,-0.0083228054669501,-0.005998131256853,-0.0019029663511805,0.0024596690639685,0.0057023013930069,0.0068994116952552,0.0057680680715724,0.0027280049589903,-0.0011755139533573,-0.0045567717811098,-0.0061796230175363,-0.0054746934721229,-0.0028023177960334,0.0007152898627832,0.0037117448425516,0.0051562035900345,0.0047044170130312,0.0027055503951236,-4.96790654510934e-05,-0.002655091551318,-0.0043373557260114,-0.004589928100543,-0.0032595575814859,-0.0006466532445479,0.0024377235689305,0.0048141339505484,0.005363332500796,0.0036035401828118,8.413105192688122e-05,-0.0037124041061613,-0.0060062106600971,-0.0056048079588051,-0.0025627570970908,0.0017666703737182,0.0053495170710609,0.0064565709565778,0.004515164088832,0.0003961806627107,-0.0040033262687411,-0.0066634553253288,-0.0038973203693695,-0.0034205019747668,0.003259968843056,,,,
0.0087688960560736,0.0018009211159426,-0.0058153815270276,-0.0109368209782767,-0.0115856422740187,-0.0077029030979469,-0.0010264226667075,0.0057446675650513,0.0100612428314561,0.010449431155077,0.0069529023860983,0.0010195090253358,-0.0050659959541837,-0.0090090449548375,-0.0093515770113007,-0.0060607350874426,-0.0005913584462268,0.0047018272853463,0.0076196638042427,0.0071439509684669,0.0038725606828841,-0.0003865870954847,-0.0036160926805941,-0.0046034782139042,-0.003430543549178,-0.0012388310368653,0.0005313082775988,0.00098020866036,0.000204633726046,-0.0008688319429652,0.0013316391349179,-0.0002608182319627,0.0013275251847571,0.0049867377054924,0.0022385124315077,0.0003194861901929,-0.0026095110560516,-0.0027418293291731,-0.0062700255956305,-0.0050010950393205,-0.0016448631236507,0.0027203882244417,0.006451252446276,0.0079139553432708,0.0062032490378335,0.0016963319925549,-0.0039009861135687,-0.0081756672811911,-0.0091062718071609,-0.0061167061295257,-0.0004782394823459,0.0052524070917901,0.0085135518043832,0.0080236135461535,0.0043298380519679,-0.0006507991487876,-0.0047334987418436,-0.0065048200875805,-0.0057587316890863,-0.0032609508527401,-0.0001646159868254,0.0025203700087334,0.0041817512607711,0.0045950813379746,0.003795904596196,0.001984771644125,-0.0004676984808943,-0.0029671360968777,-0.0047298215205916,-0.0050132793816835,-0.0034906228578913,-0.0005381864778321,0.0028079897635879,0.0052623106031848,0.0058398881376425,0.004248776672294,0.0009849445477187,-0.0028250743256329,-0.0057573554933061,-0.0065723819637501,-0.0047613158291811,-0.0009067738437728,0.0034389820905187,0.0064164527576103,0.0067420548770155,0.0043113031641306,0.0002012883516478,-0.0038715060556497,-0.006305402821264,-0.006222866486523,-0.0037361235997841,0.0001524271799925,0.0039353946016492,0.0061481641169514,0.0059164461022717,0.0033104822039513,-0.0006496440363658,-0.0043681379743403,-0.0063012017689397,-0.005599581384791,-0.0025016458449622,0.0017109718893851,0.0052166479428054,0.0064333174534836,0.0047413749022155,0.0008108971954557,-0.0036410166459267,-0.0040987615740521,-0.0067030551371993,-0.0039168847162989,0.0004779642418628,0.0045031852404787,0.0063858079831007,0.0053431685350226,0.0019019332207722,-0.0023792894268821,-0.0056140219558079,-0.0063786284841374,-0.00428165543936,-0.0001439217958294,0.0042653048462841,0.0069087007714343,0.0063990977513563,0.0027646408089177,-0.0024018089530846,-0.0066222545327506,-0.0077708490874412,-0.0052062604142099,-0.0001407225681588,0.0049841851186899,0.0077625986349553,0.0070139721775023,0.0032590214284363,-0.0016996645006205,-0.005748202989847,-0.0073919409584073,-0.0062135741485598,-0.0028048467222822,0.001600089931736,0.0055393711767518,0.0076858658728858,0.0071792666166393,0.0039331404053473,-0.0011808092626173,-0.0064308002654567,-0.0097083401187489,-0.0093348146605411,-0.004916916413368,0.0021792656867101,0.0091210134027085,0.0127255218195857,0.0109702729703904,0.004138019243989,-0.0050703716670727,-0.0126216632759363,-0.0149747011833723,-0.0107818130638121,-0.0016375479844495,0.0085195544966195,0.0151305007525735,0.0175940199091396,0.0082190931704075,-0.0026081458294553,-0.0126257881894916,-0.0173109116669064,-0.0144750133084401,-0.0053105150687227,0.0061330658979773,0.0147951377755341,0.0169080117396192,0.0116845513585829,0.0016089489458738,-0.0087803348199034,-0.0150043453341222,-0.014633415243927,-0.0082338618893076,0.0011023760702228,0.0093151355370848,0.0131952705503159,0.0116121533667366,0.0057049428226847,-0.0018581877555032,-0.0080837732742171,-0.0107895530314126,-0.0092966371733951,-0.0045199672169667,0.0015018930700935,0.0064417048967601,0.0085802597463987,0.0074263486691715,0.0038025804285761,-0.0006407507791747,-0.004234370020647,-0.0059905334629043,-0.0058439721569575,-0.0043908026803921,-0.0023876698596896,0.0021313636466673,0.006290181141264,0.0075174238215343,0.0028677695782778,0.001740173883055,-0.0006706111039229,-0.0035646097305627,-0.0056866238333492,-0.0058951419747046,-0.0037647019993208,9.49217845184204e-05,0.0042071096349498,0.0068394249934479,0.0067798971845065,0.0039130481048918,-0.0006771391490982,-0.0051298831730554,-0.0075733736240165,-0.0069125070330769,-0.0033198866057375,0.0017743726092695,0.0062220672044864,0.0080501681253341,0.0063526978686626,0.0017662100191985,-0.0037393538051875,-0.0052265299362656,-0.0084510136898471,-0.0056984485700627,-0.000818612171344,0.0039964885526742,0.0092400402751326,0.0064064216863339,0.0033008280716283,-0.001175527989676,-0.0051486154634909,-0.0070441247644561,-0.0061747133932055,-0.0029391918986879,0.0038704295482593,0.005033919354141,0.006531062103753,0.0051740079278541,0.0014480659143048,-0.0031302264956116,-0.0065819295836553,-0.0072720050569917,-0.0046738345210989,0.0002504087388552,0.0053240400916172,0.0080936127940372,0.007059480409137,0.0025554574594649,-0.0032855158670819,-0.0075645627488376,-0.0081275870688257,-0.0047111758407932,0.0009236514462313,0.0059338221738169,0.0078771412949005,0.0059323437630315,0.0012362228695642,-0.0037862835621563,-0.0066983255092144,-0.0062485169308118,-0.002890166413132,0.0015842452548702,0.0050241195123548,0.0059553154469775,0.00415246613106,0.0005614745932184,-0.0032446481996804,-0.0057231747079404,-0.0033886904494031,-0.0036464622489192,0.0001417548450472,0.0039412037026515,0.0061002116161246,0.0055162460461668,0.0022084363691829,-0.0024979305356387,-0.0064069238844096,-0.0074475100612818,-0.0047984740671382,0.0004962538935625,0.0058880891782128,0.0085856976422476,0.0070583895647215,0.001915821702304,-0.0043541762561593,-0.0086452664986238,-0.0088039004887853,-0.0047007705753475,0.0017133415690784,0.0073639194589469,0.0095362044055635,0.0096491033699543,0.0012071420131522,-0.0056869181675135,-0.0104451233527982,-0.0108045571660939,-0.0063508024280912,0.0012006080173323,0.0086425791927532,0.0126256233036508,0.0111715976404493,0.0046599280136239,-0.0042252369679456,-0.011626709867164,-0.0142308002832344,-0.0107717637525012,-0.0026217753213379,0.0068019933796983,0.0135325028476199,0.014762266704721,0.0099999089521701,0.0011960376299607,-0.0081361149916799,-0.0143477437329511,-0.0150272789185886,-0.0098534030362393,-0.0007079400369477,0.0089597609837205,0.0153521846969213,0.0157761201946508,0.0098107551599091,-0.0003390359613312,-0.010583945304054,-0.0166000820503084,-0.015729258942044,-0.0082502087823825,0.0026523733890302,0.0122860807166345,0.0165679422927729,0.0138257048249494,0.0054389605879589,-0.0048972894906733,-0.0128428649796778,-0.0152244247509772,-0.0112531501222798,-0.0027392913994778,0.0067029491258962,0.0131254126178352,0.0138399475013012,0.0085361851318295,-0.0005307560374196,-0.0094139213206965,-0.0116493820297598,-0.0125910106195115,-0.0054986658229098,0.0037835533635036,0.0109367963080451,0.0127510876923487,0.0086438357356342,0.0008412613541898,-0.0068380242073119,-0.0109014147878041,-0.0097929513002384,-0.0044492368974301,0.002348782533354,0.0074104352625182,0.0086378126273889,0.0059066263747708,0.0009523574242979,-0.0036330329192642,-0.0057551865996476,-0.0048151093447758,-0.0018472405564175,0.0012242808336597,0.0027414958120698,0.0021983624989344,0.0003707422472098,-0.0013142242986067,-0.0017170228726938,0.0018428067746929,0.001030835990873,0.0020759962707604,0.0016312191604497,-0.0001797130156166,-0.0023815235304328,-0.0037770008130484,-0.0036365697458311,-0.0020249483332479,0.0028486782040939,0.0025314054302305,0.0037236084685076,0.0035404460853662,0.0020665619737489,-0.0002409646952879,-0.002677260493534,-0.0044304942163074,-0.004797246417908,-0.0034586357197693,-0.0006994829949635,0.0025765555751728,0.0051109458374256,0.0057831267565319,0.0066303656580314,0.0006154462544909,-0.0034928753399605,-0.0065786259808923,-0.0073406738056866,-0.0053749762840593,-0.0013596151259155,0.0032348414699909,0.0067292123838449,0.0078461122785167,0.0061392972839654,0.0021450534894499,-0.00276783071933,-0.0068304329663577,-0.008496136457693,-0.0070515249672605,-0.0029523223646779,0.0023055074777245,0.0067642061364409,0.0087863749875013,0.0076816674071779,0.0039063498358029,-0.0011968458344255,-0.0059264307303109,-0.008764302552069,-0.008778054171878,-0.0058518324443638,-0.0007512375076688,0.0050028305536179,0.009488570245581,0.0109502930008547,0.0084622464378951,0.0024658062024689,-0.0051074977988805,-0.0113518384400925,-0.0135076988300133,-0.0102697995461941,-0.0026085095660405,0.0064426576038068,0.0130615133507749,0.0143874912233115,0.0098548851531582,0.0014273502535947,-0.0073494336357817,-0.0104721814985616,-0.0134954919243652,-0.0092096665993482,-0.0022180187404343,0.0046969275949131,0.0092556321828758,0.0104018015531341,0.0083615883975627,0.0066807272207705,-0.0008916057537842,-0.005760871052118,-0.0094571435538137,-0.0110135982359261,-0.0095950187003898,-0.0049215248049863,0.0022374356823667,0.0098661008901605,0.0151171783945682,0.0153667057541879,0.0095359248193137,-0.0009856685924503,-0.012444980873716,-0.0200542407193697,-0.0200902271313055,-0.0117933780560462,0.0019520491660745,0.0156466402156198,0.0235282969513386,0.0221381730769895,0.0118630440849298,-0.0032449863774769,-0.0172167716484801,-0.0246324503702814,-0.0227247377198136,-0.0098319473503801,0.0025237125846276,0.0162074427482284,0.023619906518837,0.0220896127731869,0.0123018912495922,-0.0020176275662966,-0.0155096640442319,-0.0231537837272607,-0.0220992034288144,-0.0127238088171684,0.0014489289309677,0.0149960933287642,0.0226367000110369,0.0213443870764559,0.0116533412465071,-0.0024824519395011,-0.0128182624536433,-0.0217700794953168,-0.0195390771282325,-0.0099276192719566,0.0028887702182567,0.0136976744240976,0.0184043033888433,0.0156178663998438,0.0070366303536915,-0.0034680916833631,-0.0116053750760947,-0.0144490975835342,-0.0114863361037833,-0.0045531559215896,0.0031910793120351,0.0086991243051247,0.0102248873724029,0.007808903930519,0.0029723847920059,-0.0021208015423835,-0.005601816432606,-0.0065444416679407,-0.0051243578338385,-0.0023224967842878,0.0006180846160789,0.0027088342502175,0.0035025006376608,,,,
0.0039057011739917,-0.0003367717463098,-0.0043272743986988,-0.0060661600604491,-0.0047798053809825,-0.0012707530826952,0.0025778071041908,0.0048274425173801,0.0044781637239747,0.0019242116148486,-0.0013349279803142,-0.0035453883037045,-0.0036405273750084,-0.0017648756841671,0.000888348574282,0.0028037765358499,0.0029950326249105,0.0014954159370742,-0.0007491944306143,-0.0024634905455453,-0.0027441326287172,-0.001511759686106,0.0004912581384881,0.0021327707936395,0.002520902146127,0.0014972033652928,-0.0002804910119854,-0.0017259634520597,-0.0019793052359606,-0.000946900289805,0.0006244126871126,0.0016232872767961,0.0013186816178682,-0.0001184944872074,-0.0016892375074803,-0.0022169337701561,-0.0011553868675146,0.0009911873360161,0.0029331534310163,0.0033854419274097,0.0018795739391565,-0.0009059703229063,-0.0034911532343662,-0.0044148858889325,-0.0030733259860109,-0.0001048079156159,0.0029239783579528,0.0043944072128712,0.0035815566571456,0.0010799335035626,-0.0015886489576084,-0.0029505887104807,-0.0024937264655708,-0.0009002953111099,0.0005390673577842,0.0008796087845993,0.0001476079130212,-0.0007802999607845,-0.0008963618223698,0.0001704884367193,0.0018664323829672,0.0030663348511417,0.0028077052162697,0.0009247761113087,-0.0018084907350441,-0.0040956536713819,-0.0048164672548959,-0.0035813874406794,-0.0008584137191444,0.0023121884725887,0.004779989518866,0.0056790336164609,0.0046517701434988,0.0019288610144837,-0.0016958174348596,-0.0050234547113371,-0.0067929004618804,-0.0061646488984243,-0.0031558697505101,0.0012295462742894,0.0053271398568312,0.0075000825252886,0.0068588870365932,0.0036369459039639,-0.0009501784801852,-0.0052305134408415,-0.0052099212432782,-0.0075889377884624,-0.0049935152931441,-0.0008669718817154,0.005838228251246,0.006067936000192,0.0062293775914993,0.003780445246747,-0.0001037776418303,-0.0035731640092725,-0.0050936904573054,-0.0042662474265368,-0.0019466201086979,0.0003853779229514,0.0015629677030289,0.0038529691210491,0.0003916710684301,-0.0003895748047056,-0.0003708397558416,0.0004364553399246,0.0014455861992065,0.0018615583676161,0.0011496091753474,-0.0006332134176585,-0.0027948047000909,-0.0042780475714456,-0.0041386882394886,-0.0020351891092146,0.0014847635332608,0.0050657134745311,0.0070393807282814,0.0061890774805289,0.0024433995531273,-0.002894331727335,-0.007584596462295,-0.0094161112289645,-0.0072651972652272,-0.0017420221471228,0.0049287555110276,0.0098177704629986,0.0106287828026995,0.0068346686820058,1.4981146376424083e-05,-0.0068334625110988,-0.0107156408018199,-0.0100871517898829,-0.0055765125751138,0.0004260695126784,0.0075921247310209,0.013973017817021,0.0095541567304487,0.0004925795582094,-0.0040898147152928,-0.0073838298447902,-0.0084473913238851,-0.007352307594983,-1.969912159919731e-05,0.005148606179466,0.0045307175708749,0.0049382177052781,0.0036747449133883,0.0010048789576482,-7.112043611087113e-06,-0.0012657971083445,-0.0043902042807533,-0.0040067811236538,-0.0045036152641559,-0.0033047819682543,0.0019255282056871,0.0030715909824993,0.0065733919833122,0.0063077314957677,0.0037971369929568,0.0014134172647581,-0.0070982476642117,-0.0076351759422733,-0.0053573072350141,-0.0042935270887559,-0.0025949491484666,0.0046111600511389,0.0094626049658387,0.0099129825730943,0.0058449324020923,-0.0008427577915171,-0.0071209766094759,-0.0102274580083416,-0.0088849105398835,-0.0038077687070851,0.0026768554593744,0.0076965212190395,0.009114553998664,0.0064595066356482,0.0010934660381276,-0.0019685914763974,-0.0077972932068384,-0.0077123020198048,-0.0047593160064124,0.0016533619594301,0.0065797132238556,0.0036203110287377,0.0022026249864863,0.001616553539591,-0.0005513647740435,-0.0044496796070719,-0.0046946720183979,-2.995923654732488e-05,0.0024857648132205,0.0033723671838423,0.0038972822320907,-0.0004211067271871,-0.003031126437903,-0.0045786374837016,-0.0038786462205592,-0.0010851904663858,0.0023185497202098,0.0067602731318879,0.0056889499334142,0.003878790382492,-0.0019817736582175,-0.004587381496326,-0.0093486569758784,-0.0080274875243901,-0.0015069484058762,0.0055926519907787,0.011087015566178,0.008554100409619,0.0049370265608114,-0.0032765040770548,-0.0114534725800547,-0.0073299715011752,-0.0042907692982502,-0.0007263975340012,0.0035924009583353,0.0061532827567885,0.0080356987775766,0.0049232903180057,-0.0013248659066141,-0.0037031253382632,-0.0056256986983149,-0.0092854260757635,-0.0037859124968566,0.0017233771270392,0.0080091068816896,0.0089948031649765,0.0045500445206982,-0.0018360172529699,-0.0037637587147525,-0.0040609587125,-0.006699733048543,-0.006798368119613,-0.0010604108536324,0.0087187317740844,0.0111500991333637,0.0051109590503401,0.0009676327673105,-0.0020411711449504,-0.0110013222523236,-0.0087003090206438,-0.0039986927762142,-0.0006882023516642,0.0057611422075345,0.0095063068782725,0.0110123141854251,0.0055238996896623,-0.0046362480118354,-0.008736716199801,-0.0116938730590838,-0.0078857329443071,-0.0010893710347599,0.0061387178641748,0.0086270738276868,0.009987974768536,0.0058762912019514,-0.0019200708524949,-0.006380216542335,-0.0081682352662739,-0.0042989266128227,-0.0027848105993404,-0.0008171707844727,0.0020833150953893,0.0045695737080143,0.0089998054104875,0.0070649405217356,-0.0014868927262798,-0.005284057592387,-0.0080115881965905,-0.0074157292314749,-0.0002596626754648,0.0016092211238966,0.0059806200501752,0.0068290390953511,-0.000659360116175,0.0017881719614601,-0.0010462931984914,-0.0027562156163024,-0.0045224495119473,-0.0011614359964551,-0.0002302067632467,-0.0004948705645245,0.0015080317137206,0.0016611034681269,0.0041028629057924,0.0036723221049516,-0.0010504449719749,-0.003557522917968,-0.0045565502207525,-0.0024669741122866,-0.0017315648658344,0.0014327576959066,0.0049777171068932,0.0046015259423626,0.0039932490133069,-0.001813095292902,-0.0042050602879555,-0.0038344907005179,-0.0062535022839945,-0.0011530088615843,0.0013474045486036,0.0069129118242829,0.0062988376144172,0.0028775715124641,0.0012028708958403,-0.0025117104180517,-0.0061617301091682,-0.0076609199192964,-0.006006912043634,-0.0019008600768714,0.0073433611014207,0.009210372157982,0.0093459484248067,0.0055638647288134,-0.0017442301469101,-0.0088828719318447,-0.0157157987125817,-0.0095347674118767,-6.937445385325695e-05,0.0087569953108359,0.0132209317253556,0.0115313974715789,0.0046501232692326,-0.0041837085866948,-0.0109457040305614,-0.0126227229025611,-0.0085293032909177,-0.0005944192416254,0.0075108131058674,0.01205052843504,0.0109658355376017,0.004850113117336,-0.0033468063838635,-0.0097605757160529,-0.0114793072380344,-0.0079004176034678,-0.0009245455200034,0.0060644486807153,0.0098848208217738,0.0090489973995477,0.0043324023762107,-0.0018001918366435,-0.0065187870766026,-0.0079616280675218,-0.0059337381397836,-0.0017480607249514,0.0025646235705827,0.0052179867001571,0.0053771689641159,0.0033707578620211,0.0003889818715665,-0.0021542414583296,-0.0032846861793734,-0.002841005626245,-0.0014010340806801,0.0001445190673118,0.0010915604503083,0.0012180350651568,0.0007661282452459,0.0001961273674385,-0.0001086562050537,-3.0126081889591837e-05,0.0002715845576209,0.0004919199768092,0.0003685916335563,-0.0001736083197492,0.0015148636132795,-0.0017730005011747,-0.0022055492946953,-0.0019804091110152,-0.0009495873978016,0.000691933500093,0.0023420142453187,0.0032004524932417,0.0026904649126564,0.0008390733797112,-0.0016569144627284,-0.0037481983765935,-0.0020537658162165,-0.0013082366029626,-0.0019692894789746,0.0026003474689373,0.0015960005601391,0.0020553005058804,0.0014357896452759,7.42019866133083e-05,0.0010686054096487,-0.0024148718759382,-0.0023857095358436,-0.0012583466318796,0.0004998005734196,0.0019539295880256,0.0021464350593939,0.0007248509023814,-0.0016749722158106,-0.0036417994429011,-0.003768442074419,0.000930783508073,0.0020371390223248,0.0050916164061911,0.0056998362140019,0.0031826827248248,-0.0014626447105014,-0.0060398507910755,-0.0082715527570355,-0.0069331754623586,-0.0024274802158728,0.0034150475346851,0.008140271237034,0.0097036155565825,0.0073304822387383,0.0018795084092643,-0.0044561040033704,-0.0090347092786089,-0.0099064739988249,-0.0067128591553773,-0.0008969968460095,0.0049390900046179,0.0082719451199634,0.0078786177966925,0.0043795261570995,-0.0002153846943878,-0.003686767387482,-0.0047907475523356,-0.003745711820886,-0.0018041940955533,-0.0002929266631926,0.0002029036395525,1.8793297683996063e-05,-5.5121793804550056e-05,0.0005305935111116,0.001666658577041,0.0051681433435904,0.0027064942886587,0.001323852086942,0.0012714074100501,-0.0040540610387466,-0.0060026968796896,-0.0061206672407533,-0.0040360800055761,-0.000205256425199,0.0041263127448106,0.0073088933827898,0.0079252166213609,0.0054482793612218,0.0006106800514311,-0.0047607286557314,-0.0084575109187661,-0.0088599682585949,-0.0056974187530286,-0.0002120926971267,0.0053599524641253,0.0087436734234959,0.0085827843481254,0.0049941634612633,-0.0004998277677715,-0.0056231088706865,-0.0083049072378325,-0.0075362141640748,-0.0037586138294716,0.0013647380153705,0.0056737824836346,0.0074171313456419,0.0059737295591205,0.0021025725707728,-0.0023970376344139,-0.0055008213324153,-0.005908630477937,-0.0036693084794541,-0.0001266505349493,0.002830660754944,0.0038191860522032,0.0051775725580074,0.0003955614625,-0.001619623291569,-0.0023847318098858,-0.0018079264317269,-0.0005815370034789,0.0003798452366849,0.0005544722288042,8.191173994703252e-05,-0.0004394638501258,-0.0004360717434228,0.0002211860671705,0.0011277564855178,0.0016198854091135,0.0012206591197214,-2.1436046143227852e-05,-0.0015060658982286,-0.0023944849030521,-0.0020979960184825,-0.0006605732624982,0.0012088476966383,0.002507273526609,0.0025162990854098,0.0012391122481867,-0.0005959226699017,-0.001986877931296,-0.0022670748859654,-0.0014539247328883,-0.0001245374743847,0.0010276248982309,0.0015876654724355,0.0015098879577012,0.0009488071178469,7.604222490963282e-05,-0.0009310162333596,-0.0017703724731426,-0.0019746122477952,-0.0011139499497087,0.0007959952594856,0.0029154402155002,0.0035043528238398,0.0002905019094768,,,
