-0.0009124061511706,-0.0036213060602613,-0.0028933797414629,-0.0053991514498566,-0.0034723149107164,-0.0002390369958398,0.0031070103474583,0.0052456047983637,0.0052563422968974,0.0030548977211441,-0.0004704444349004,-0.0037639393979566,-0.0052994904017332,-0.0043625415862958,-0.0014729251491246,0.0018516285972541,0.0039112888350163,0.0037658919486585,0.0017430010645726,-0.0008022811362768,-0.0023373838269462,-0.0020904493303803,-0.00048688563954,0.0011934329155196,0.0017056680630231,0.0006765430035566,-0.0011680721142462,-0.0025135319023621,-0.0023367892692839,-0.0005698908022166,0.0018590746141811,0.0035921097183551,0.0036319099925366,0.0018808141430522,-0.0008486663360002,-0.0032979842452753,-0.0043978742967384,-0.003729393520905,-0.0016180005672071,0.001104810800919,0.0034798186375552,0.0047358579785665,0.0044524326513954,0.0026100377586226,-0.0003855669941024,-0.0036930777193275,-0.0061412605774635,-0.0065655428532203,-0.0043412032852221,0.0001299217363912,0.0053081371769339,0.0089781193066912,0.0091926051914492,0.0053028516928673,-0.0014692362205516,-0.0083327530096893,-0.0121043811875393,-0.0107519232339226,-0.0045074941884287,0.004088736665026,0.0112971626196657,0.0138942246696935,0.0106378098747554,0.0028032628611424,-0.0063854534614029,-0.0131109301549348,-0.014526966648453,-0.0099382400787196,-0.0011411154449776,0.0082548560513197,0.0143109940954819,0.0144489746157534,0.0085926297055644,-0.0007764073027494,-0.0096954143389107,-0.014453127496815,-0.0131939038910096,-0.0066611496774233,0.0022436229464974,0.0098280153356201,0.0132034674965361,0.0113648453558959,0.0053649005056983,-0.0023188953301478,-0.0088132159539319,-0.0118416067601847,-0.0104160001682333,-0.0051219691998281,0.0020513703981799,0.0083592761476578,0.0113154697151225,0.0097263589472225,0.0042633852641079,-0.0027630089150704,-0.0083834124594215,-0.0102770125267702,-0.0078066914610107,-0.0022850834919173,0.0036820992710099,0.0074696020231812,0.0076723250356554,0.004668048811563,0.0002471394168547,-0.0034248134158486,-0.004909830485231,-0.004085007196242,-0.0019627516755085,0.0025472700700272,0.0009344852154666,0.0005513116617357,-0.0004006346640871,-0.0008563993013702,-0.0001105089939855,0.0016465550865037,0.0033191393437687,0.0034993377149665,0.0013980187258574,5.0504038177040505e-05,-0.0062504419811517,-0.0078455778021123,-0.0059230851855854,-0.0008844977448893,0.0051637227344918,0.0093796987379444,0.0096105283059275,0.0054879504752632,-0.0013611327977344,-0.0080358851751593,-0.0116111869648304,-0.0103470755812697,-0.004404255984426,0.0041350166280819,0.011885581154242,0.0151714688169247,0.013565061318406,-0.0018604093888199,-0.0181870588547948,-0.0302940836448287,-0.0043205935288413,0.0184617746201396,0.0164156256071651,0.015825843634238,0.0083052808160498,-0.0172526670282061,-0.0405465818923033,0.0015871970462569,0.0165496257903374,0.0107320214886156,0.0065593374095908,0.007698906642506,0.0038404639318065,-0.0048609542298004,-0.0189318681623721,-0.015925903231782,0.0078138048738285,0.0079193143003534,-0.0050982035407351,0.008419577610273,0.0127654043062956,0.0075517456063644,0.0013138889685091,-0.0109250196773262,-0.0226745317060099,-0.0097440631569323,0.005495233788536,0.020491144681787,0.0104423443568596,-0.0036999487375377,-0.005596171298685,-0.0099633859065423,-0.0005430032543512,0.0114200843565067,0.0095191465439906,-0.0045812969347879,-0.0232514606222921,-0.0112231258783634,0.0187127376226044,0.0216747320272321,0.0060877525855219,-0.012134602698677,-0.0151075151204292,-0.0136153809566953,-0.0018086145679149,0.0169496811252872,0.0181755308536592,0.0038941546453979,0.0052382789169427,-0.0155677501117747,-0.0189083393941838,-0.0057505969860482,-0.0038098138163708,0.0011868864066048,0.0162052030062584,0.0234412969805197,0.0073104661127702,-0.0079802770983092,-0.0166416042462501,-0.0055766711986959,-0.0131229890541998,-0.0042407716187183,0.00864321853592,0.0076900615472446,0.0152274030538657,0.0071279621755598,-0.0150450492379696,-0.0106665373065832,0.0033222071536471,0.0089191933615947,0.005379990476459,0.0039984897904528,-0.0110311700290076,-0.0296559758833439,-0.0022085037529005,0.016043871497435,0.019491961269499,0.0163350815537453,0.0051725789671431,-0.0091492134718405,-0.0248336964061371,-0.0085677621978563,-0.0078615069948883,-6.492462504417865e-05,0.013484069326587,0.0177661599840745,0.0123755210153136,0.0015739581742049,-0.0116783256674371,-0.0235706290747884,0.0002752101145699,0.002023223677639,-0.0036516951603872,0.0089329789046647,0.0096892125723059,0.0062737466841665,0.0016763238135125,-0.0050095009168233,-0.0054287868729532,-0.0005398710195601,-0.0125395996114245,-0.0147318267619248,0.0108171996619569,0.0175624617310094,0.0115640429441342,0.0022756324876709,-0.0054624529614248,-0.010961126709605,-0.006230432288106,0.0007594523262387,0.0003915313968253,0.0015329940757756,0.0002934412292084,-0.005121405055359,-0.0065713579429939,0.0069196762328832,0.0245246095899172,0.0118898367821488,-0.0066286191526556,-0.0151123966765158,-0.0194316375505278,-0.0129301705756366,-0.0010087953347533,0.0070120663530494,0.0030322037613502,0.0329306220559197,0.0217142403288189,-0.0022064116371812,-0.0223476325988093,-0.0172071649180034,-0.0162441094670243,-0.0166925309433917,0.0080855453865936,0.0167722872024883,0.0171148370150272,0.0153033136290768,0.0079096716931036,-0.0055318095556169,-0.0085359462092033,-0.0185475846837171,-0.0282944646526342,0.0004268757462395,0.0141595632156449,0.0184331714342136,0.0126460042484872,0.0042227859285787,-0.00023490127311,-0.004297226483468,-0.0116561236494745,-0.0134879327452473,-0.0077845720758947,0.0051837090456743,0.010582547781742,0.0093876409014944,0.0040241865825355,-0.0010970288682045,-0.0118253452186439,0.0052358196837827,0.0031408079180617,-0.0030890860368918,-0.0045930452208825,-0.004448680907339,0.0013727456070596,0.0025557960408293,0.0026442668009124,0.0010783566534494,0.0033971222879315,0.00018393239168,-0.0029924780646474,-0.0001163145129995,0.0015682056351338,0.0011648248018095,-0.0029105020618795,-0.0118300457848044,-0.0029898856901893,0.0094021062713258,0.0073254238645963,0.0089771938320719,0.0004962978646128,-0.0048381554810822,-0.0102999865448376,-0.0091539259066214,0.0017538110982926,0.0080343113656049,0.0064562202087279,0.0005948995014614,-0.0040897251807811,-0.0032916382750253,0.0016591358899078,0.004272590759936,0.0031990994356505,0.0002879268549429,-0.0091098193203301,-0.0185364230163196,0.0065999465267705,0.0157947745500139,0.0110222721486832,0.0042442803027148,-0.0035523196480174,-0.0095133608772848,-0.0147127564568033,-0.0077831224192157,0.0011464655450536,0.008474453777267,0.0124533597883765,0.0115472316562652,0.0056750635514035,-0.0031166574292781,-0.0111773219480458,-0.0148401468026089,-0.0122400048466562,-0.0018419600904481,0.0078899081393126,0.0125621318167718,0.0139487826845844,0.009043955608507,0.0002251895547576,-0.0084873064442778,-0.0133439225452908,-0.0125002605408494,-0.0066647444593605,0.0014266840874898,0.0083496895022295,0.0114758908198048,0.009961070380508,0.0048874191530739,-0.0013991265265869,-0.0063912389774947,-0.0084527923181171,-0.0073461683374886,-0.0040747914759769,-0.0001984346347477,0.0029610966861655,0.0047839284161314,0.0052983462556077,0.0047829899501202,0.0034039254062989,0.001173965831844,-0.0017716744690282,-0.0048527330626061,-0.006998417306459,-0.0070291456769236,-0.0043265428295169,0.0005852252619913,0.0059641606068029,0.0094753064256995,0.0093019704390787,0.0051716278986495,-0.0013213361892493,-0.0073666929931867,-0.0102809154405115,-0.0088359747601005,-0.0038433069966736,0.0023275067877692,0.0069969844319009,0.0084562034864825,0.0065879486363847,0.0026139541720682,-0.0017052413329509,-0.0048670204501396,-0.0060493482707195,-0.0051453285831697,-0.0026186910034601,0.0006516055911415,0.0035469497455265,0.0049999935918204,0.0043959118808517,0.0019093575472727,-0.0014510760256045,-0.0017147505126291,-0.0051343758646748,-0.0038066966604539,-0.0008547680186661,0.0023680561620476,0.0043679370052575,0.0041664849236747,0.0017701625460344,-0.0017528845058795,-0.0046694538412009,-0.005360318040837,-0.003180481217499,0.0010458683857602,0.0052615645784845,0.0071523433668288,0.0054113025224829,0.000586140649997,-0.0050376037145208,-0.0085451905510602,-0.0079369968373323,-0.0032619954195887,0.003309123661073,0.008543657768451,0.0097907065827127,0.0063429663471764,-0.0001958310846098,-0.0067162723807836,-0.0101439143948815,-0.0089159993186383,-0.0036674779863939,0.0031597903578423,0.0085182886029148,0.0101339879176544,0.0074250457264448,0.0016269037980615,-0.0048164630421172,-0.0092709336569559,-0.0099405651592302,-0.006553527074627,-0.0004667857938247,0.0058655397174706,0.0098742804228336,0.0099200922479648,0.0059704555775453,-0.0003750717787344,-0.0065340115039241,-0.0100150976931901,-0.0094722444062809,-0.0052625136532767,0.0007674696731084,0.0061614456817659,0.0089401722577554,0.0083477506744534,0.004955929022663,0.0002141509419441,-0.0042162807335781,-0.0070211933247122,-0.0075373194869243,-0.005804148928752,-0.0024320955230703,0.0016199471393605,0.0052637496991412,0.0074642615024243,0.0074433882396622,0.0049615097790367,0.0005865171540188,-0.0042911388220079,-0.007881842132229,-0.0087477380828694,-0.0064782919958803,-0.0018874907978757,0.0033589472093404,0.0074325678422175,0.0089860152307932,0.00752938137665,0.0035122610316783,-0.001820547846296,-0.0067459522582415,-0.0095315961617951,-0.0090051893437123,-0.0050722904490246,0.0010566549917473,0.0071406169002823,0.0107047433312257,0.0100933319064669,0.0052960441417931,-0.0019025937906545,-0.00858908844588,-0.0119313243705051,-0.0103981906764007,-0.0019785656715702,0.0033947637788167,0.0097879121197394,0.011788639874361,0.0083959836392754,0.0010581930152659,-0.0069265497415322,-0.0119018741193236,-0.0115541627648012,-0.0035235144836886,0.0021037737126782,0.0089962780732097,0.0114597375773218,0.0085075817544898,0.0017703937236975,-0.0054261172848632,-0.0097771298287991,-0.00957358520022,-0.0053387579204326,,,,
0.0030596212905776,0.005028162373239,0.0047456089062646,0.0026405167876752,-9.278952260725116e-05,-0.0020602482601952,-0.0023866975954655,-0.0011964057267724,0.0004679099464496,0.0012943249766974,0.0005576205605265,-0.0013504431640127,-0.0030928878035528,-0.0032191378796462,-0.0011690108753315,0.0022128651537184,0.0050527659187727,0.0055475895193957,0.0056005213559586,-0.001264047359921,-0.0054400057448678,-0.0073578236801704,-0.0060692745622033,-0.0022241610875485,0.0023265046655743,0.0055376069875331,0.0061745501921934,0.0042741160987323,0.0009134510100573,-0.0024396477813103,-0.0020828150328246,-0.0049713346020353,-0.003747172758466,-0.0015004638929328,0.0009854200071253,0.0029031306742448,0.0036105698186143,0.0028742919399647,0.0010277808745331,-0.0011199893543637,-0.0026350852852446,-0.0028871550017327,-0.0018246631908977,2.5841013907295995e-05,0.0018081197929397,0.002708358266134,0.0022988847710665,0.0007232907475989,-0.0013450558393745,-0.0029589591730903,-0.0032868742717015,-0.0020039020319842,0.00048116034668,0.0031106952829222,0.0046079640840971,0.0040909713325572,0.0015599680910608,-0.0020207451000833,-0.005108164642507,-0.0062457310423703,-0.0047099375713271,-0.0008884595891496,0.0037552062923359,0.0071766908104422,0.0076099079082098,0.0044819120475915,0.0013898606375876,-0.0067572276037049,-0.0098314815776726,-0.0087534012327152,-0.0038176124525903,0.0028558254948956,0.0082933998791489,0.0100895205870564,0.0075316758857293,0.0018635984306696,-0.0043895639717485,-0.0086187294609721,-0.0092320791093268,-0.0061931993781271,-0.000872751644821,0.0046039755523051,0.008190802778204,0.0086302303472621,0.0058350390359255,0.0008624426113069,-0.0044780204889297,-0.0082422114471555,-0.0090020652267424,-0.0063438708967155,-0.0010739760688564,0.0049529777404186,0.0093981803669526,0.010293674853265,0.0069199572261457,0.0003058136814927,-0.006991806071632,-0.0093787126811304,-0.0121137813079421,-0.0073869131176919,0.0004981998513219,0.0083677772844649,0.0129748325316557,0.0123375897231881,0.0065813989218539,-0.0020766862880446,-0.0101923589827087,-0.0144423749344706,-0.0129316434576981,-0.0059975355749111,0.0037800893702138,0.0124484170226156,0.0162319678614798,0.0132145628189243,0.0043802392125679,-0.0066106659116312,-0.014965466812645,-0.0169567468167951,-0.0116804591037462,-0.0014689056324619,0.0092261742040221,0.0158685160324236,0.0157873181950549,0.0092050749214288,-0.0009818419703968,-0.0104657187207625,-0.0152968725547114,-0.0135245557045958,-0.006141982052321,0.0030583975141984,0.0088429572810466,0.0068620328975384,0.0132022557125243,0.0141792457375995,0.001715471686006,-0.0104673194222072,-0.0165707988577505,-0.0159754947396847,-0.0082863898259084,-0.0030220334626789,0.0189004346997873,0.0204260737464988,-0.0045173700261025,0.0176742915818543,0.006694123563029,-0.0126017479870655,-0.0219878630749981,-0.0208115108785824,-0.0085055283431879,0.0013927699328092,0.0198968358375003,0.0333222154372175,0.0159401200506476,-0.0031052253599553,-0.0295273931898895,-0.0152189981206526,-0.0088080995666909,-0.0038996785521873,0.0099716397893111,0.013635964411406,0.0118375255413267,0.0027679408176656,-0.0083860897516036,-0.0168374720098349,0.0066962280204339,0.0137840125122095,0.0063990867169814,-0.01155896173445,-0.0202811729612481,-0.0156280573721357,0.0016032961559039,0.0282112853291885,0.0333663277075702,0.016902519252848,-0.0160301698264099,-0.0431884637643816,-0.0442361517985924,0.011947492871352,0.0228715101755766,0.03611526429904,0.0122645360840431,-0.0007644791153019,0.0035652989905667,-0.0171625826781692,-0.0480894606826771,-0.0126821060430385,0.0262549167389838,0.008195857824046,0.0264045327169281,0.0183410551685575,-0.0044360715777296,-0.019095095465829,-0.0105080744531624,-0.0159347665783892,-0.0078772376423755,0.0014098111613941,0.0152587699221033,0.0179824920318886,0.0112391299130254,0.000931958613211,-0.0091427861540577,-0.0176153240456103,-0.0013321156415365,-0.0048847337255559,-0.0071636699006995,-0.002722114713365,0.0206779237365217,0.0175504616681719,0.0069955794313495,-0.0100126739536959,-0.0198707160109543,-0.00765543916362,0.0095180312620304,0.0019316848623728,-0.0028831410773514,0.0012590115671431,0.0043369662385999,0.0012673848429932,-0.0106284715934271,-0.0043579564284241,0.0254403386194136,0.0172576357501881,-0.0026164955363926,-0.0261583459898278,-0.0313556781416168,-0.006933483794277,0.0032053244380723,0.0258881034359561,0.0353346921314777,0.0194865701937258,-0.007214990877044,-0.0274918460709229,-0.0321943967417568,-0.0186388496275778,-0.00218940382245,0.0202693151896844,0.0211215234025733,0.0310000085631674,0.0147853682532726,-0.0128558766432511,-0.044714824201327,-0.0213351216628249,0.0056646643114261,0.0137073006670056,0.0194910582264842,0.0098213868562646,-0.0053685264963255,-0.0124942559587858,-0.0043740323544896,0.0080906227190088,-0.0014551976110151,0.0053915731932931,0.0028290530053558,-0.0068297939882591,-0.0092239674194941,-0.0143432293122531,-0.0023751980084401,0.0281797311766965,0.024875779508883,0.0026843887818159,-0.0214271744077078,-0.0298183622759361,-0.0067321246407883,0.0119674902768625,0.0159917169897171,0.0119728886510575,0.0015451783557285,-0.0195175011111054,-0.0009083603173667,0.0022367108611873,0.0047641048498623,0.0014864715166818,-0.0002308352254508,0.0039334937173418,-0.0095362424710626,-0.0028818506412787,-0.0072939363930709,-0.0045522751674228,0.0222428719143046,0.014903478934333,0.0011903885839036,-0.0156150672296392,-0.0146378158729601,-0.0080902011652102,0.0117311711250954,0.0040318267191657,-0.0045125284551557,0.0088236795711954,0.0100861428767392,-0.0012655883993557,-0.015624613486691,-0.004624933315619,0.0064894959248647,0.0049437295946088,-0.0002217214475379,-0.0028172699287242,0.0014015052526227,-0.0047186811828673,-0.0016792473376392,0.0009612298566136,0.0050975374516,0.0028051997169808,0.0002289944413918,0.0035199416792845,0.0045766316798982,-0.0095000515960374,-0.0126543741313402,-0.0139797835471414,0.0110639919594454,0.0181305240602252,0.0093282708499609,0.0023981130683288,-0.0063760883652038,-0.0110552236433166,-0.007031387177426,-0.0031450781806866,0.0012569601751934,0.0029097450985366,0.0073772849177013,0.0078884468170122,0.0044291752712167,-0.0050095008650299,-0.0081867796366723,-0.0061869077636289,-0.0020407824124388,0.0022357633802049,0.0041933896183283,0.0024003254525634,0.0048797840184055,0.0041376040478099,-0.0038682270579757,-0.007915299458556,-0.0058533888236077,0.0002871103151184,0.0051745774716836,0.0066412472246494,0.0042458200111648,-0.0005074362807096,-0.0049570101057823,-0.0066841109821126,-0.0047700453027251,-0.0002401422006745,0.0045196889322627,0.007035176029692,0.0060202949788695,0.0020020805205304,-0.00299760431904,-0.006520646979324,-0.0069056193600781,-0.0040712890145853,0.0005153936394924,0.0046268262194675,0.0063848701907432,0.005126783975297,0.0016257648040212,-0.0023741869578366,-0.0025366860409389,-0.0053118281678992,-0.0033758139088265,-0.0004085964406215,0.0020947152506241,0.0030767133327313,0.0023791976324913,0.0007025327693756,-0.0008806015944704,-0.0015428153795166,-0.0010916464733562,4.283321441498746e-05,0.0011304646534241,0.0015283078515706,0.0009351058281848,-0.0005203272723398,0.000187640567172,-0.0036708169572202,-0.0038297205622306,-0.0023297419073828,0.000653345433948,0.0041227177931971,0.006481369812814,0.0062235978045003,0.0028290668106446,-0.002651125237226,-0.0078016000798332,-0.0099342525948714,-0.0075667009308795,-0.0014162132324654,0.0057790116962754,0.0106056015582563,0.01073880523836,0.0061150482431144,0.0013749643102398,-0.0078175360998914,-0.0113005282726005,-0.0104398732292858,-0.0058371255186541,0.0006336924554381,0.0066343120777721,0.0101628068453132,0.0101139410374016,0.0065330454454459,0.0005812998217686,-0.0057655742364342,-0.0102688509313613,-0.0111568370041124,-0.0078374257019603,-0.0012903965622993,0.0061256081445528,0.0114902862102641,0.0124914973573035,0.0084604731172842,0.0007901263858665,-0.0075101334486999,-0.0129985336005346,-0.0132548418395469,-0.0079802459485726,0.0007634181314369,0.0093349366899433,0.0140365787306091,0.0127464970134659,0.005927759330654,-0.0010085468749422,-0.0115025657589623,-0.0146751575937281,-0.011776344931725,-0.0041491226614992,0.0049157388639749,0.0116242019842536,0.0132793663362493,0.0093637340352951,0.0016940103117658,-0.006380877127895,-0.0114098109326999,-0.0113241199298389,-0.0063466296424802,0.0011116718287138,0.0075764018716041,0.0101619308062411,0.0079427648184195,0.0023313255570484,-0.0037382083092858,-0.0073603664000229,-0.0070870993003232,-0.0035004501275762,0.0012766886503651,0.0047720610869241,0.0054068391384425,0.0031923939113658,-0.0004139632547535,-0.0033754563847918,-0.0041846209387447,-0.0026135413041453,0.0002793464517677,0.0028321742969458,0.0037142713801883,0.0025819037550038,0.0001484187899979,-0.0022813790653176,-0.0035044383699596,-0.0029845825750675,-0.001056247583892,0.0012838226944438,0.0028843168055936,0.0030158872744086,0.0017357764950028,-0.0001688396044542,-0.0016526303792286,-0.0020305626676117,-0.0013547091237156,-0.0003032166122632,0.0003384919971962,0.0002415135655626,-0.0002556091505339,-0.0004412294501503,0.0001785671196542,0.0014221229206583,0.0024546534919457,0.0023117399106754,0.0006026525017217,-0.002066926427152,-0.0042766534312797,-0.0045600512675973,-0.0023563198740952,0.0014650104700963,0.0049421278558215,0.0061157903974691,0.0042153513551499,0.0001506255611324,-0.0040144133076433,-0.0062357773569089,-0.0055507816335851,-0.0024362165145474,0.0016028257733542,0.0048354780233134,0.0060284347839934,0.0048195173611739,0.001724969075771,-0.0021024495871818,-0.0052487950191405,-0.0064790569990834,-0.0051752769603315,-0.001647517062545,0.0028515232902076,0.0065143711033526,0.0076928521582664,0.0056581201172611,0.0010384944918887,-0.0043287396376272,-0.0081326699069451,-0.0086143520589945,-0.0054085455645872,0.0002181736268691,0.0058779888249705,0.0091110353144791,0.0085026902030216,0.0043440978601456,-0.0015044070557887,,,,
-0.0027029650258389,-0.0006602704563617,0.0010407552759471,0.0039893978785609,0.0006190400578142,-0.0008406747716884,-0.0018110804971087,-0.0015101508226944,3.357069495268522e-05,0.0019462276703036,0.0030124083792163,0.0024218947559933,0.0002992693220387,-0.0023234309017798,-0.0040809806704449,-0.0040366980861945,-0.0021695968839688,0.0006704985256594,0.0032511876652891,0.0045551306500222,0.0041554807491287,0.0022542557962974,0.0019835071743735,-0.0033589036922955,-0.0054777583471297,-0.0061460821248148,-0.0048534989349838,-0.0016108590635142,0.0027777483001292,0.0067481735568669,0.0084845030138939,0.0068020954443266,0.0019633821744318,-0.0041484821360139,-0.0087872346989254,-0.009725616320964,-0.0064686401139901,-0.000538718112684,0.0053461855724004,0.008677418486959,0.0083117127841736,0.0048043980023659,-9.861100751806348e-05,-0.0043888961092229,-0.0066256291448562,-0.0063433648451397,-0.0039996944282182,-0.0006277864284944,0.0025909050109149,0.0046820884421423,0.0051022939534701,0.0038324175183489,0.0013617291410135,-0.0014345374039804,-0.0035448450753452,-0.004188028520482,-0.0031782819978189,-0.0010739926855047,0.0010539180558098,0.0021824664754609,0.0044066131764858,0.0006271595856474,-0.0007460080373308,-0.0013516603488925,-0.0008899334388398,0.0002056879912733,0.0010769561382376,0.0010313886135598,9.63952212108322e-06,-0.0013764498648357,-0.0022408908804044,-0.001977499011849,-0.0006194145913279,0.001188264858737,0.0025495124411473,0.0027918484917916,0.001808511798238,0.0001054617433086,-0.0014711545867718,-0.0021966103318591,-0.0018693063866431,-0.0009021146038024,-1.91187762143145e-05,0.0002611897535451,-2.228256071934351e-06,-0.0002310599559669,0.0002002085344165,0.0014058329481209,0.0027581492905581,0.0031925264644964,0.0018974387926957,-0.0010358372766383,-0.0044419705228251,-0.0065577759053907,-0.0034520204602776,-0.0024462812799009,0.0025357290513864,0.0064878060062699,0.006977598817491,0.0029186409062619,0.0027733024913022,-0.0004841336388381,-0.00304192484913,-0.0101337944965291,-0.0121223545412122,-0.0036972213375782,0.0070348361620284,0.0096344514564933,0.0100090922250351,0.0060264623328633,-0.0001903501195642,-0.0057801764911151,-0.0084520656282236,-0.0074268339226918,-0.0035940208506751,0.0011053603705373,0.0046740886260975,0.005906663320722,0.0047311325349462,0.0020041822177664,-0.0010209355665805,-0.0032515702795924,-0.0016338093627441,-0.0037782334285072,0.0020693089232471,-0.0021805829186604,-0.0025809514975938,-0.0017389495955818,0.0007509721964862,0.0057753952864451,0.0065776110400989,0.0051538888997671,0.0069599832956921,-0.005647845868486,-0.0234254622783984,-0.0185448737449674,0.0034313141115395,0.0174949275044569,0.023311366963409,0.0180647728406631,-0.0089620711636536,-0.0143511264905391,-0.0225711247891356,-0.0255597039822773,0.0223628496996109,0.0194115605003245,0.0014125739125163,0.0026035535968886,0.0028416816045187,0.0071761649304876,0.0008805223042462,-0.0271082340257582,-0.0210336828157346,0.0108776342846953,0.0161183346894265,0.0137155568176622,0.0061697660848853,-0.0057864828001398,-0.013542374292987,-0.0101334976646228,0.0079206183570956,0.0108932101851968,0.0049440822628485,-0.0045961227623406,-0.0147977556210607,-0.0172721788679929,0.0052825307972377,0.0218704828454242,0.0185456825714025,0.0114421937191696,-0.0025527133072168,-0.0259649044836416,-0.037189353853775,-0.0102050373490339,0.0245082340023527,0.0255712930007252,0.0140019225959139,0.0040427815753273,-0.0049705698751808,-0.0046186380050429,-0.0165141727483295,-0.0133650707517659,-0.0106011695674332,0.003849335890366,0.0165225001144258,0.0123057600522287,0.0094428885105162,0.0035656142921487,8.218731764064602e-05,-0.0080126517596718,-0.0176197497209806,-0.0159613815375896,-0.0140845770307324,0.016303440655673,0.0245330488935318,0.0173985115038549,0.003875170864664,-0.002972370343491,-0.0090577629346924,-0.0148477029159484,-0.0204874861052294,-0.0224517698227771,-0.0068089410085995,0.0370562875226654,0.0477643195618492,0.0379532625377047,0.0007494243720375,-0.0492733741027841,-0.0816486738453955,-0.0396654787160741,0.0266588269488167,0.0663069807368701,0.0553753630468731,0.0237801669019967,-0.0061717154733378,-0.0349234700974189,-0.0557606686973187,-0.0781499651933128,0.0197454111446267,0.0608271024370562,0.0649756507990436,0.0281186145354178,-0.0233673040802251,-0.0536012039386374,-0.0178382382424531,-0.0094579127627998,0.0166165607024151,0.0206053765282011,-0.0224622990811668,0.0143208311761599,-0.0002425927056274,0.0045823154272642,0.0177749637247525,0.0068409722621215,-0.0061360188937005,-0.0177908721925425,-0.0382755864834812,-0.0052999527545046,0.0335389220804352,0.010091837617651,-0.0001665115935713,0.0260424032354772,-0.0114172749898695,-0.0166089269656666,-0.0019848233354768,0.0046733790306492,-0.0057062896304586,-0.0245308396217094,-0.0091732284744155,0.0505629734794695,0.0112506186425276,4.466113286290127e-05,-0.0325323646950056,-0.0092570649586924,0.0124101132254889,-0.0102052441758351,0.0059365113586325,0.0188492692589419,0.0050128566631926,0.0141938579805559,-0.0138811329320855,-0.0461867489497005,-0.0077354145894302,-0.007064159732933,0.0433018179924599,0.0190382714565472,0.0109547455721788,0.0296203915816167,-0.0156885518831263,-0.042257505492513,-0.0707194724408038,-0.008082117084109,0.052308512692928,0.0524691304550491,0.0118804978318144,-0.0011382809504113,-0.0041073584874363,-0.0316888945909249,-0.0418793546399331,0.0115775034980502,0.0248701500912943,0.0224910971628485,0.0051606262477813,-0.0357248679573231,-0.0077946560162397,0.0069493196573052,0.0102626522847555,0.013070502594641,0.0003821393714393,0.0007353088623382,0.003167876145513,-0.0017179649271289,0.0069345668872069,-0.0392338396086795,-0.0414744244657817,0.0283614345770038,0.0287325187288218,0.0044291707200033,0.0170262601876865,0.0401102225620523,0.0160913609386724,-0.0251095555777268,-0.0970991333663331,-0.0543829113266999,0.0040630110861412,0.0565139690387804,0.0939453099396408,0.0417479320299015,-0.0075704597421016,-0.0277809687902141,-0.0681390544665262,-0.0867178570467737,-0.0065414630681956,0.048795078318565,0.065652946941532,0.0483147066237178,0.0380843460294717,-0.0070440329333187,-0.0783740992455911,-0.1239408699428302,-0.009041634428229,0.0768465498683751,0.0793571774735946,0.0425834735509866,-0.0065495618932718,-0.0306642383486255,-0.0483166836969148,-0.043020234596356,-0.0361008471476335,0.0427455875118768,0.0505017236808889,0.0433382766569404,0.0179582093356576,-0.0233445115730256,-0.0709791462385632,-0.022313427179435,0.0220024327636927,0.0260089069613602,0.0151674436061782,-0.0039053609872718,-0.0175639499240142,-0.0033804648260799,0.0055652575638024,0.0116099265444761,0.0153404787696833,0.0011618913550123,-0.0209696692466267,-0.0290864614051657,0.0002403197352332,0.0226533133247035,0.0117470315161491,-0.0013677220618886,-0.0067450160765574,-0.0034068950430346,0.0017019245837753,0.0072150587547125,0.0112940893618027,0.0056462497178843,-0.009840170430683,-0.0314921208622594,-0.0255709800551438,0.0078196034471113,0.0350960045495312,0.0270613721475323,0.0086589766586456,-0.0089701774009252,-0.0120055063022055,-0.0140398095053076,-0.0168185620006228,-0.0167765522537957,0.0092649465154453,0.0264410015461875,0.0156067321729481,0.001199181101122,-0.0075043921102006,-0.0097160507986523,-0.0066059677515361,0.0005433783365523,0.0049169988849608,0.0020376407251826,0.0037786133475306,-0.000978872048778,-0.0066513289290302,-0.0084891812422653,-0.0047318786967522,0.0053353247793511,0.0100351004326693,0.0126061718597775,0.0085759031656579,-0.0005536527243263,-0.010469182588883,-0.0162016526902874,-0.0146504625003351,-0.0061845788788353,0.0054787344329147,0.0150275673848065,0.0180618945017202,0.0131554008550411,0.0025141976463537,-0.0090712728856159,-0.0164849352748327,-0.0166576415575455,-0.0098815410446943,0.0005476946033085,0.0100646771968023,0.0149460515342185,0.013738980190057,0.0074846844309794,-0.0010797193770157,-0.008747414592674,-0.012937139649747,-0.0123855531127296,-0.0074069470848733,0.0002429753775034,0.0078807699112201,0.0127265013186665,0.0128647854715344,0.0080236903652666,-0.0001611141227702,-0.0086024255669942,-0.0138815235470269,-0.013658550988937,-0.0077772178289247,0.0014985110375905,0.0103334673220966,0.0149519256638026,0.0133237220233003,0.0061086128272677,-0.0036040538741532,-0.0116559751636356,-0.0146600980954093,-0.0114785084085756,-0.0036693598211343,0.0052828622459259,0.0115738677077972,0.0127590112820033,0.0087260830188276,0.0015518738886604,-0.005598835965328,-0.0099191427807712,-0.010048496044097,-0.0063938156454647,-0.0007158978359577,0.0046890605651133,0.0078483612394376,0.0077612741261478,0.0046914335948165,0.0025048109038765,-0.0044325786675354,-0.0070190667867873,-0.0069686496061242,-0.004488838074712,-0.0006036330599771,0.0032741441602196,0.0058302660640132,0.0062348060035707,0.00436907274578,0.0008735868672795,-0.0030203964525037,-0.0058788302589116,-0.0065685635768177,-0.0046964153590467,-0.0008221177648156,0.0036500557986127,0.0069244927553864,0.0075203212183673,0.0049697424414152,0.0001471179717975,-0.005014682808598,-0.0083414396820513,-0.0083744051822987,-0.0049951082603901,0.0005487074333342,0.0061590899149719,0.0096700703379865,0.0096029498353268,0.0057028823486262,-0.000856315672355,-0.0077021513598631,-0.0119993345666644,-0.0115850067836089,-0.0060929966818444,0.0025451718703617,0.0106784160802878,0.0145156897310926,0.0120058485070263,0.00401529855039,-0.0059194099434368,-0.0132313194230117,-0.0145388994109296,-0.0092963776134263,-4.526040909585734e-05,0.0088373018972281,0.0132538705382638,0.0113273474636056,0.0042401093552483,-0.0044075597658523,-0.0079079548165654,-0.0110576162469572,-0.0064675046494623,0.0006394826386738,0.0064601675837038,0.0081075868152593,0.0050599237699618,0.0018212515284961,-0.0057885680962159,-0.0074878370347799,-0.0049675979300856,0.0002871336696656,0.0053688756946779,0.0075282631979941,0.005612298115405,0.0006036959661557,-0.004967697704016,-0.0083508031175371,-0.0078982814894025,,,,
0.0045307092768305,0.0062820700092568,0.0050137523365655,0.0013178087524731,-0.0029525571202977,-0.0056414866033997,-0.0054481631051739,-0.0026192912174465,0.0012332263502564,0.0040727430944138,0.004569271008781,0.0027633372821986,-9.113931540655544e-05,-0.0023560964840044,-0.0029692078678308,-0.0019518577104339,-0.0002123054919382,0.0011417863206728,0.0014847205001166,0.0009263292245426,5.9495834295969e-05,-0.000530939487113,-0.0006228320453264,-0.0003719286621304,-6.686588423159668e-05,0.0001285567081675,0.0002447646461088,0.0003753106409983,0.0005034224452187,0.0004674438007619,0.0001117131243933,-0.0005090453719509,-0.0010722123438669,-0.0011676786112625,-0.0006039639214677,0.0003964794395236,0.0012837167928115,0.0015137492956238,0.0009100581616213,-0.0001934398337529,-0.0011348379253497,-0.0013302059933834,-0.00065428346863,0.0004504767841856,0.0012270375664506,0.0010844719190992,1.1803452291084324e-05,-0.0013533239966544,-0.0020780177221397,-0.0015175660361732,0.0002249272912867,0.0022656507574823,0.0033974685108671,0.0028001810423242,0.0005807568453274,-0.0022088229547836,-0.0041187606443605,-0.00410529178646,-0.0021218638881438,0.0008483223904643,0.0033376453158503,0.0041940045580646,0.0031580820739789,0.0008905609674862,-0.0015030239670708,-0.0005976429014805,-0.0035437400549634,-0.003024712617838,-0.0019031151623298,-0.0004472240656775,0.001147491604409,0.0025894146192523,0.0034230808753473,0.0031819282767856,0.0016877751993177,-0.0007113157172581,-0.003162182920326,-0.0046331427372412,-0.0043962106444063,-0.0024057857179759,0.0006378449013182,0.0060601867088192,0.0051587852724754,0.0046687146316681,0.0021125309865466,-0.0016436274358903,-0.0051781483211795,-0.0070225188098635,-0.0062334493510282,-0.0028445989218057,0.002015990404892,0.0064717899487281,0.0111099257836593,0.0072608549405108,0.0025686209651248,-0.0038630559022581,-0.0094425429725118,-0.0116167617138315,-0.0090375856389899,-0.0023350367349824,0.0059217988786775,0.0121892020900877,0.013510724560384,0.0089751646783129,0.0003135086196727,-0.008750378136351,-0.0141529508664018,-0.0133781546485141,-0.0066688395124167,0.0030351083133205,0.0114135488107611,0.0146887562716716,0.0111929900642878,0.001841557665763,-0.0105530929986246,-0.0224594226914593,-0.0013513749269247,0.008272760266602,0.0084837749241948,0.0061567924904812,-0.0002429897980762,-0.0088612095460361,-0.0107051677612658,-0.003383071457329,0.0054528081664103,0.00788449816631,0.0084150562842801,0.0097119031495689,0.0067383557113364,-0.0044650349200643,-0.0217040827102236,-0.0265631101522311,-0.0074371389927622,0.0045465064407314,0.0274331458467215,0.0259815400295322,0.0194931619364903,0.0036388435231106,-0.0238062556348995,-0.0268233513330496,-0.05284910148598,-0.0080761055726202,0.0625115732249298,0.0448042266084546,-0.0148117513205469,-0.0206579152037462,0.0049928312877564,-0.0037939801744204,-0.0021047998231625,-0.0052743248484915,-0.0171607564459233,-0.013811827935371,0.0138616985312374,0.0281541739277148,0.0165242813167987,-0.0023385967244742,-0.0195453289428123,-0.0001631557472062,-0.010316000019912,-0.0132757210512888,0.0028586712703027,0.0056759035176056,0.0129440378865131,0.0045945572139243,0.0104991402034642,0.0055162538017331,-0.0162202051255562,-0.0400906853883457,0.0277254029995791,0.0204798431926417,-0.0183906550093492,-0.0121587641611452,0.0150271779367445,-0.0079530325194343,0.0191851433773667,0.0114511540832339,-0.0108551267574721,-0.0223656065060409,0.0091694825271258,0.0011969139798868,-0.0108871511253807,0.0100654948621102,0.002818209109461,-0.0144061856787197,-0.0012852756855915,0.0280532640340647,0.0136067002903557,0.0047369508542137,-0.0238515148082812,-0.0431342593232441,0.0080097185468994,0.0075474772105306,0.0244630356598469,0.0098740744487272,-0.000935604008741,0.0044434277206825,-0.0120764110514446,-0.0292240234033319,0.0065756480342762,0.0232980182837309,-0.0008018011948823,0.0188037030147761,-0.0210156416719978,-0.0337390672746596,0.0002615134422577,0.0259386917044372,0.0360378098779691,0.0020872663342222,-0.0483600991917639,-0.0008917817145005,0.0120693215188269,0.0154081509043101,-0.0300412891276709,0.0146947093912265,-0.0041632567796117,0.0150505170799096,0.0080382008732513,0.0026205065260898,-0.0339298538707301,-0.0123538712521165,0.0193478879134221,0.0080461218411978,0.023336594398953,0.0160103631850287,-0.0369720421530391,-0.0459447839541505,0.0135323370170507,0.0245234655748063,0.0144241047267641,0.024765411649559,0.0053906896661338,-0.0299743501993826,-0.0578761895904485,0.0187424942134785,0.0166869882886243,0.0386084354685946,0.004987816090541,-0.0253939639770254,-0.0391149630034324,0.0249408749491275,0.0285498082862984,0.0190087792208183,-0.0309385184247604,-0.0523193319237008,0.0195162709037505,0.0405083082166517,-0.0016398071003313,-0.0205983551136948,0.0068539717588848,0.0078427698315566,-0.0093427360241694,0.0106143668762081,0.0005173496976429,0.0059814793038843,-0.0089500112651996,-0.0321298194569884,-0.0304043466280674,0.0339017483391521,0.0408412945833237,0.0427524830476257,-0.0073697526128006,-0.0578217616064263,-0.0361414185741785,-0.0065241706265745,0.0411677620327065,0.0199128063730598,0.0020569393996844,-0.0129664077299294,-0.010152321714876,-0.0072546694383439,0.0255268100124607,0.0139299770113628,-0.0079345267135033,-0.0352080710238903,-0.0066147503353336,-0.0034160822869406,0.0258233815251873,0.0259424376370262,0.0071913980770132,-0.0230984169755327,-0.0280921749975114,0.0002789566215797,0.0135006069930959,0.0009934849704724,0.0199765540179995,0.0078395231083078,-0.0104668573174121,-0.0146538287381323,-0.0227951232278425,-0.0085797717363271,0.018816476464812,0.0372686473308858,0.0135873649647852,-0.0138070323001228,-0.0074573552651919,-0.0222786848938322,-0.027653920347949,-0.0197394052152286,0.036930290250729,0.037604829700898,0.0322064532479388,0.0005015173758907,-0.0290359863241403,-0.0461597430540566,-0.0354356587044905,0.002747951315193,0.0392973491212521,0.0422496048623689,0.01725726032549,0.0032295241084422,-0.01897749511496,-0.0338356972119911,-0.0497064180924406,0.0114385355597628,0.0369681545176078,0.0288744287184894,-0.0005022452125819,-0.0126192416213833,-0.0005138127393685,0.0077084328831146,-0.0118555457432389,-0.0143192197212078,-0.0130163864407959,-0.0128044707070522,0.0445868808081479,0.033218605265925,-0.0085420515361792,-0.0411767080690452,-0.0174919403550598,0.0071375700308057,0.0110012865174359,0.0093340985773955,0.0113427439074577,0.0079970499636153,0.0023345306192526,-0.0145490903085721,-0.0285091226176498,-0.0213838661918612,0.006128904335093,0.0440375037403283,0.028317299178492,0.0016275684812225,-0.0205761541256696,-0.0267002060047974,-0.0178966381195028,-0.0036049459317891,0.0107330008178817,0.0173551713924281,0.0233639093466135,0.0125551005792037,-0.0170136488935445,-0.0182741025439602,-0.0060810642755571,-0.0102114161831124,-0.0023565795265507,0.0029910577889925,0.0090208558221151,0.0190896964058527,0.018613258415428,0.0103757644158062,-0.0157194297676013,-0.043882516159676,-0.0360322099461747,0.0227232803298379,0.0230945959395701,0.023784208467314,0.0122808597965618,0.0014857499915178,-0.0057355380996464,-0.0096479019172015,-0.0125237648143277,-0.0183404207170552,-0.0409916523154776,-0.0027640262354554,0.0674980574600927,0.0540495877228582,0.0098701017629443,-0.0293368228051544,-0.0443704731873925,-0.0357687434800293,-0.0138145768473557,0.0123686789795323,0.026441315559236,0.034593188716397,0.0233072143666235,0.0039466318294151,-0.0166645349658714,-0.0303163397925894,-0.0280235250709409,-0.0129698909530983,0.0050316056144726,0.0192315720504501,0.0240085999058735,0.01991862669271,0.0120137239156668,-0.0030685348422107,-0.0204558284295662,-0.0280059099794243,-0.0221776409965555,-0.0061062551615681,0.0114475509682996,0.0235963307237625,0.0255980882075151,0.0168854046150717,0.0013688555319626,-0.0142434578092559,-0.0234109365248949,-0.0226545550926315,-0.0130330856327921,0.0004850434005781,0.0114864406921422,0.0298905576608921,0.0251417912613117,0.0071566376344417,-0.0120399169101002,-0.0197941707674339,-0.0201326224809627,-0.0129543924481153,-0.0014471158664284,0.0094895158332128,0.0155567430280915,0.0148900033997332,0.0085776929408002,-0.0001950966862249,-0.0077588641271408,-0.0114830391251108,-0.0105971027971837,-0.0061301623012609,-0.0001778984041017,0.0050668754701087,0.0080679104319512,0.008238124012215,0.0058362977119791,0.0017181541703323,-0.002876063838645,-0.0065225215329486,-0.0079390612585142,-0.0064629686777436,-0.00248145495023,0.002509260602619,0.0064124587535904,0.0074772558133048,0.0077095738996603,0.0006845366123479,-0.0039564637488356,-0.0065684190419732,-0.0061010298369115,-0.0031221736306428,0.0005890577664604,0.0031375641466868,0.0035935410948419,0.0023825583513508,0.0007803170031055,-8.249990373696762e-05,1.9810269167435934e-05,0.0004002945962368,0.0001429928574813,-0.0010817704914509,-0.0026810720618221,-0.0035058213461775,-0.0026472481289314,-0.0001256646959882,0.0029758706957476,0.0050383000696185,0.0072903663092699,0.0020273389800484,-0.0021943849566074,-0.0059571421129748,-0.0073516716588264,-0.0054469383354518,-0.0008532571961013,0.0044428656529743,0.0079440534072314,0.0078393835552746,0.0039611433397971,-0.0020099095510118,-0.0072625860566626,-0.0091995354377367,-0.0067528298708815,-0.0009791912733434,0.0054110505690916,0.0093695244429347,0.0089899796775479,0.0044064918051995,-0.0022991784601137,-0.0080869670860157,-0.0103534289621836,-0.0080933957023979,-0.002313822371407,0.0069459858829129,0.0092159181877768,0.009863669171102,0.0060456065477021,-0.0006010297194964,-0.007149505355592,-0.0106626250966654,-0.0095199379227031,-0.0041953260265088,0.0029257414745307,0.0086511315096726,0.0104814597908689,0.0077489215524537,0.0018366234078488,-0.0045711914063661,-0.0087565443305231,-0.0091108435101642,-0.005689600985488,-6.245662393520545e-05,0.005381923145074,0.00839338202302,0.0077577104266518,0.0038067617452878,-0.0016985328506231,-0.0063186051916067,-0.0080219684499875,-0.0061120871382953,,,,
0.000546770504112,-0.0032583350605716,-0.0056233012271805,-0.0055644318006489,-0.0032497496819871,0.0001796995199454,0.0032530770998581,0.0048791413274609,0.0047226614397476,0.0031169078192108,0.0007068200649103,-0.0018554993238221,-0.0039894050620785,-0.005128279632531,-0.0047519863505963,-0.0026300102908929,0.0008496116176963,0.004558692157394,0.0069426753127925,0.0067210041832372,0.003622324005044,-0.0012989018871329,-0.0060181108129385,-0.008440312163292,-0.0073988816795863,-0.0032440755985746,0.0022820359461453,0.0068303971624908,0.0085094059364701,0.0067170676013869,0.0023559533214333,-0.0026419881885865,-0.0062238334072673,-0.007113808128247,-0.0052885434470884,-0.0018380788778806,0.0016690290823905,0.0039513300219418,0.0045066852537112,0.0036274681701884,0.0045139964533356,0.000266047337772,-0.0013790794576872,-0.0029000419178723,-0.0041671988329109,-0.0047663656556431,-0.0041147503564242,-0.0018386988573769,0.0017802548120535,0.0055983752509806,0.0078946995522472,0.0071522613599505,0.0030019579628956,-0.0007485377705678,-0.0089793052854383,-0.0114458337765744,-0.0091725067138896,-0.002820058137855,0.0049788005956464,0.0108115751717476,0.0120923967282202,0.0082393531863622,0.0008786324272548,-0.0069193972963664,-0.0094571457482336,-0.0122307155375163,-0.0077153126581764,-0.0003042842446496,0.0069981346746879,0.011289562756369,0.0109526674089753,0.0063100795909222,-0.0005807511318508,-0.0068990409799855,-0.0102898877090008,-0.0097367279617976,-0.00574348373101,7.946441731252714e-05,0.005687008848657,0.0092369095423908,0.0095761253460399,0.0065553792741775,0.0011247669477934,-0.0048795911168002,-0.0092916081573412,-0.0103882200764825,-0.0075980563543448,-0.0018309992165833,0.0047656678616596,0.0120733956678171,0.0105099481807014,0.0069444737389678,0.000162693925277,-0.0069702298768127,-0.0111643094714288,-0.010218323515618,-0.0042316999042893,0.0040430367564915,0.0099437901998392,0.0085743768341623,-0.003036161759526,-0.0068862140626867,0.0096356307826687,0.0080060221599645,-0.0052887658792871,-0.0100286292121174,-0.0100655597159793,-0.0051646874659595,0.0035019167531991,0.007815428376968,0.0107210475868218,0.0107174154873138,0.0011832493747667,-0.0150984026072725,-0.0094365266415409,0.0030337642920327,0.0010856026019749,-0.0073775334556273,-0.0146455430561603,0.0160557562609927,0.0245477952129472,0.0140916723102255,-0.0074657621313462,-0.0144543812292193,-0.0139245387656675,-0.0328255345496021,-0.0036562142340006,0.0339455329339947,0.0306895393623472,0.0153117646476295,-0.0094503507763012,-0.0192434583394355,-0.0270791051781441,-0.0104165549893973,0.012657796967714,0.0086781459097675,0.0115024538625212,0.0032174715713197,0.0011684070564687,0.002432807929935,-0.0040525856787177,-0.0069232740105701,0.0042041955536628,-0.0030731123186441,-0.0204235923579955,-0.009422428848921,0.0171122258528856,0.0206163395824185,0.0108584155157972,-0.0005895610628757,-0.0010598136616217,-0.0063424105595481,-0.0139447421957001,-0.0268720539156003,-0.0166965922902296,0.0150193212494746,0.0370157170221907,0.0327126605717145,0.017639988581941,-0.0224113149437908,-0.0470709810858786,-0.04619955127481,0.0153968527301858,0.0224132403747945,0.043858062961416,0.0239846636540319,-0.0193680385435686,-0.0238270384636458,-0.0211702151975137,-0.0216196590145295,0.0204574894780028,0.0247618181147791,0.0161564286328945,0.0003236172597104,-0.0090356847883263,-0.0153480713840104,-0.0030331703019832,-0.030166959533201,-0.0043630019067636,0.0409628888590141,0.0303735888707337,0.0094310441808128,-0.0179967482429105,-0.0474391330203299,-0.0011079572116192,0.0267542441633548,0.0045543839148795,-0.0305083709406924,0.007328569630985,0.0224354870062354,0.0116749408311089,0.0069588242337012,-0.0147031015631779,-0.0149733727510727,0.0178877901792355,-0.0166027690059849,-0.0433648553748907,0.0238310582396176,0.036910646028288,0.0215231377704443,-0.0086025522466232,-0.045394322144158,0.0054684035635307,0.0162414822565088,-0.0002048679651594,-0.0009998781989727,0.0068109700864756,-0.0065542103763857,-0.002550238634106,-0.0159699380460071,0.0047628946337317,0.0099283081301749,0.0109078087337729,0.0049618838034924,-0.0018318687034213,-0.0049102738906622,-0.0019804505664445,-0.0047497024161534,-0.0145324166442648,-0.0132815119872422,0.0034038136986016,0.0280028897144173,0.0204929316084343,0.0117090218005326,-0.0130005546241544,-0.0291755889201141,-0.0167535108628809,-0.0011876755029669,0.0063111063780178,0.0157002654029816,0.0162417535704655,0.0068045018813815,-0.005485314379877,-0.0060918225277089,-0.0201862003448868,-0.0251033113557283,0.0256451963362297,0.025401430663895,0.005403944122021,-0.0065019688040631,-0.0100234512423507,-0.012679421396974,-0.0131160957564646,-0.0030413435869307,0.0172211951343295,0.02896396316571,0.0153186385083065,-0.0105749737820833,-0.0306836970396381,-0.0215917511923138,-0.0006715620458219,0.006179786366307,0.0165304770217094,0.0175284484814081,0.0137277362955814,0.0010899841217706,-0.0130692806492651,-0.0237535766370684,-0.0122136283499448,-0.0104483229566136,0.0046460841658864,0.0210741890088408,0.0241285247143235,0.0169981217465757,0.0024445577529294,-0.0182705750282646,-0.0371341196978311,-0.0230627472607308,0.0037333050907025,0.0203768500688073,0.0199849613330195,0.0190934319467093,0.01112395598467,-0.0031112108459584,-0.0189092411393903,-0.023115492065444,-0.0220577633815147,-0.004310804389682,0.019369442850301,0.0264704179682348,0.0192389498069597,0.0042881863327347,-0.0120053148833931,-0.0217341361625891,-0.0206862572358758,0.0008700675574534,0.0161868350752983,0.01174575076413,-0.0067084708585479,-9.5966170852167e-05,0.0084793372985158,0.0038820264158424,-0.0044121949925523,-0.0136793445458033,-0.0027978601943498,0.0107590475309651,0.0023074915040372,-0.0025306504860826,-0.0056959263852552,-0.0032006608277537,0.0014403721934876,0.0051949596023952,0.0089014765765494,0.0085080002117116,-0.0008773610360296,-0.0174388180252934,-0.0165240038898162,0.0020955237767901,0.0125719222245482,0.0094540704996823,0.0031614113810846,-0.004184842513444,-0.0029972617574013,-0.0004438610251772,-0.0023753901505464,0.0022083843021454,-0.0045650006354705,-0.0038905102507878,0.0096593049481056,0.0044708644271406,-0.0028608359494682,-0.0067471977479987,-0.0016865578804265,0.0002984112639827,0.0058535645090198,0.0025136512382789,-0.0002985762239087,-0.0022558529718287,-0.0046883529533925,0.0001438468823184,0.0053496864754455,0.0012697576422165,-0.0115273611399561,0.0090390130590004,0.0073630943841295,-0.0031976064706726,-0.0075822747549574,-0.007953464832674,-0.0016767624418946,0.0062963798757963,0.0116684056535414,0.007864117008472,0.00211127610552,-0.0044856378022225,-0.011561660816863,-0.0095838898979086,-0.0086791064580821,-0.00279727765466,0.0071062519063251,0.0143037866121774,0.0156599640173995,0.0103398744779172,0.0001769462417865,-0.0109075609058067,-0.0183125589314177,-0.0185829350935278,-0.0109887269753229,0.0018658232948457,0.0148417903138349,0.0223156282033669,0.0206750421641698,0.0101147544127535,-0.0052044979388602,-0.0188377776928243,-0.0248696251000386,-0.0205589441307918,-0.0075830167206735,0.008675012199087,0.0214424649983653,0.0254280051117753,0.0190070395251274,0.0048368889627215,-0.0112877697758979,-0.0228171566733191,-0.0250886482486782,-0.0171871545624297,-0.002306016768941,0.0135258921158544,0.0238600089021955,0.0244491269107926,0.0150226941166976,-0.0005473457863432,-0.015822264640941,-0.0244913957578952,-0.023030789694996,-0.012157201149483,0.0035400017113272,0.0175736410469611,0.0242482598278286,0.0209485768672054,0.0091481096383131,-0.0062221063499199,-0.0187988114064762,-0.0234237144184326,-0.0183133592222514,-0.005802452402586,0.0087105863945093,0.0191517061837017,0.0213845425375089,0.014863537987483,0.0026618611555823,-0.0100072509570951,-0.0180370303809647,-0.0184775040710062,-0.0115891900997781,-0.0005406427256787,0.0100479913865416,0.0160482523310277,0.0154277230053359,0.0088964122788962,-0.0005834950668929,-0.0091399158691845,-0.0135844770624424,-0.0125916529812049,-0.0070175834200918,0.0006726341712547,0.0075102758212103,0.0111432784711529,0.0105633677787411,0.0062796975458699,1.3957349948848914e-06,-0.0059940092745972,-0.0096086640837263,-0.0096047422353517,-0.0060391884797568,-0.0002906460901287,0.0054004479600289,0.0087794176819318,0.008506498149081,0.0047601392126679,0.0016837481048211,-0.0058664672334538,-0.0083820630377063,-0.0075147070636018,-0.003835297650005,0.0009914007352975,0.0049590391440764,0.006564106199818,0.0053825982919704,0.0021640457439735,-0.0015645765796289,-0.0041970631876727,-0.0047394214100896,-0.0031925545344635,-0.0004704263565892,0.002081951217075,0.0033270489123865,0.0028326320373467,0.001013923086262,-0.0011224966965995,-0.0024898842060403,-0.0024358016146099,-0.0010296422607475,0.000986264595234,0.0025493695189908,0.0027866397806159,0.0014627607765025,-0.0008545850014889,-0.0030297561986728,-0.0039129452413982,-0.0004601716032715,-0.000600085922354,0.0019391027402343,0.0033266496321835,0.0028954247817775,0.0009826323405217,-0.001309697613518,-0.0027564477980097,-0.0026807451028343,-0.0012823832325601,0.0005451326938872,0.0017793548615745,0.0018595334983455,0.0009441627871409,-0.0002876126654843,-0.0011078471365672,-0.001151880046014,-0.0005349250918263,0.0003230446085138,0.0009759083883686,0.0011419319844489,0.0007530728497349,-6.514207943458882e-05,-0.0010153348715042,-0.0016773136680808,-0.0016527761365129,-0.0007921211918542,0.0006355366545659,0.0019909472893023,0.0025610995816693,0.0019447382479104,0.0002897421579596,-0.001751333525972,-0.0008158253965094,-0.0037277181297306,-0.002772602130527,-0.0007343900653779,0.0017036967796475,0.0036230825416965,0.0041582616113427,0.0028865354472957,0.0001345438161785,-0.0030196421381047,-0.0051374326650518,-0.0050709308093266,-0.0025738002711505,0.0014495507609715,0.0052321856643265,0.0068924172234638,0.0053287689195325,0.0008584802344055,-0.0022418212559396,-0.0089140730438199,-0.0094549819250594,-0.0056078472713425,0.0013533869094812,0.0084159327822092,,,
-0.0045222930689432,-0.0023514994746266,0.0010713457757432,0.0042005501659704,0.0054907361364336,0.0042277762949796,0.0009700734822349,-0.0026972328934801,-0.0049913225353253,-0.0048811188793651,-0.002610591833267,0.000499534651579,0.0028360222878353,0.0058646603158728,0.0020658263482724,0.0022743413196712,-0.002369735267297,-0.0035023322384961,-0.0033340435748669,0.000367784125195,-0.0005445397067372,0.0006864194844083,0.0010839125262882,0.0031646163914974,-0.0001399422627547,-0.0007708768883839,-0.0008428645898858,-0.0003528945324856,0.0003085497422294,0.0006071091479731,0.0002339002181068,-0.0006601184852646,-0.0015189309398333,-0.0016882714207354,-0.0008033468228081,0.0009361658069133,0.0027520808380615,0.0035975588561533,0.0027072487989474,0.000125522463229,-0.0031262972048685,-0.0054356890198109,-0.005405082804984,-0.0026588997758187,0.0018099589360623,0.0059863598282671,0.0077527027897111,0.0059668741570787,0.0011592210312943,-0.0045677667530331,-0.0084798779848651,-0.0085677895872747,-0.0046182900484612,0.0015908658132615,0.0071129963008986,0.0092770345332768,0.0070296560343319,0.0014894022814813,-0.0045875208139876,-0.0081855424177942,-0.0075672268177052,-0.0031763051217729,0.0025855536521451,0.0066221716685962,0.0068014316342951,0.0031233113924859,-0.0022636478533454,-0.0062526265957212,-0.0065398243159993,-0.0004667640452115,0.0023387313028851,0.006180744566412,0.0062085132334191,0.002325892661298,-0.0032734820427756,-0.0074015933391691,-0.0076929166084255,-0.0038962965029723,0.0020440650446206,0.007087362960193,0.008717048515318,0.0062081903721395,0.0009075062013605,-0.0045640616714068,-0.0077040146917776,-0.0073364624064188,-0.0040137959221945,0.0004964833715732,0.0042241348060043,0.005893275220869,0.0052885149858434,0.0030617695869642,0.0002436600562489,-0.0022207511621443,-0.0037250391965383,-0.0040394486748296,-0.0032415427245178,-0.0016397313150351,0.0002927341083897,0.002016043455528,0.0030733934973247,0.0032378051821329,0.0025687627827226,0.0013405936994228,-0.000107597656275,-0.0015004753620789,-0.0026569788959636,-0.0034226086926304,-0.0035814090554225,-0.0028533054861389,0.0014406777494802,0.0015764302731698,0.0042409475460964,0.0057319261997361,0.0050113476834132,0.0018449892622177,-0.0028151788382588,-0.0070213351099683,-0.008652903152038,-0.0065285967711039,-0.0011944079985818,0.0051369429333913,0.0095648482142398,0.0099180153242633,0.005856421800488,-0.0009186387051877,-0.0074361357576794,-0.0108087312636627,-0.0095232869032086,-0.0040973716548434,0.0031563125351966,0.0091250138251122,0.0112170938693327,0.0084681528256851,0.0019854627534464,-0.0054704657869826,-0.0106372918518583,-0.0111805456145841,-0.0067725053570558,0.0007007608395433,0.0079404283899368,0.0117018355964131,0.0102632798818307,0.0042259680235786,-0.0037285659782182,-0.0100389463897737,-0.0119034655192028,-0.0086016869425342,-0.0018274053270975,0.0100531914425342,0.0115616072084418,0.0081573595788048,0.0031033983990055,-0.0033837840256556,-0.0080251737221008,-0.0087192217353866,-0.0054942411517856,-0.0002351086409492,0.0044915096934529,0.0067457362333927,0.0059639592276185,0.0029055714788841,-0.0009663714596585,-0.0017265990266809,-0.0059850508119333,-0.0059462972833058,-0.0041427681667712,-0.0007607813242273,0.003663101633924,0.0078558972561829,0.0096776711380099,0.0065889358490191,-0.0032977415118829,-0.0078317882835375,-0.0191808054085936,-0.0060059398671328,0.0002330372792681,0.0128112825837453,0.0101477018492662,0.0062131747873056,0.0079442029191611,0.004849584545216,-0.0100276701723589,-0.0263657081944371,-0.0082650362571759,-0.0011521500230857,0.0121657744233913,0.0119518876780609,0.0065759041596227,0.0029254125591884,0.001660854933023,0.0009617263275557,0.0009913591714324,-0.0073337007625458,-0.0154529903417427,-0.0304404914457148,0.0016053530170257,0.0286358091234666,0.0252619746725272,0.0132104745393571,0.000794191246351,-0.0108757461562557,-0.0130817775651409,-0.0183061359870826,-0.0280809869046521,-0.0044024207399765,0.0354069588786404,0.0341646997913686,0.0082239682806836,-0.0229448871684544,-0.0157026059533523,0.0042470372202082,0.0055895076736063,-0.001217267108563,-0.010076176297096,-0.0094907460616048,-0.0002313761912781,0.0046957600453116,0.0201190077501494,0.011159452239383,-0.0078750391151208,-0.0118502974178142,-0.0032610463920734,0.0075231808565066,0.0026783016449695,-0.0122850193416946,-0.0130343965775853,0.0007436511979039,0.0153200442904495,0.0113023682902324,0.0036188536084608,-0.0032813347181937,-0.0084680625318833,-0.0041756825514227,0.0075134871663389,0.002860448452617,-0.0102781817412465,-0.0106918586429166,-0.0010805540924299,0.006546753900352,0.0147356394264994,0.0010601489279868,-0.0004444419144115,0.0030023371254823,-0.0014180944784865,-0.0090708082810417,-0.0054745370747938,0.0019887241265228,0.0006031743405108,-0.0019021235006952,-0.0103834452737467,0.0032379570527913,0.016219883689111,0.011931778388711,0.0074154315785546,-0.0046769104882205,-0.0142235599838906,-0.0157512599737355,-0.0074572126456621,-0.0054468056022875,0.0084637000761865,0.0165602414989846,0.00621667761698,0.013821599466808,0.0052840374592694,-0.0088075126652937,-0.0142523772061842,-0.014539580443047,-0.0140706699765663,-0.0074370089487841,0.0126470800708696,0.0235743173277937,0.0261730337135552,0.0124003377907879,-0.0110091139706227,-0.0320301038471036,-0.0352042532473218,0.0003291800390184,0.0143417956959983,0.0268709683339844,0.0161664333448479,0.001220944528126,-0.0084412718062194,-0.0113957037732382,-0.0079249993229287,-0.0048205597071984,-0.0033074298280006,0.0032473334582785,0.0069957616840773,0.0057240063544212,0.0072797160251852,0.0051630763765349,-0.0020810726893078,-0.0094161464507206,-0.0120206611620357,-0.0106978824422036,0.0014786243215234,0.0122330015689961,0.014489908499283,0.0085804612521131,-0.0002268379582024,-0.0085880779591121,-0.0133713268847144,-0.0087916009000583,-0.0024223711933966,0.0043456086700649,0.0092596369661501,0.0102776214918646,0.0067777280090649,0.0001572323670053,-0.0066216448017485,-0.0103978021084881,-0.0093906656773642,-0.0041140531678702,0.0029003066616617,0.0084032590658094,0.010010353720809,0.007233782875195,0.0015302174022796,-0.0045139067975463,-0.008372749228543,-0.0086053588448271,-0.0053416264674734,-0.0001126430451466,0.0048503590573305,0.0075522530426734,0.0070377344324884,0.0037429775179818,-0.0007535488539606,-0.0044771122055706,-0.0059612000775354,-0.0048801550922403,-0.0021017369431756,0.0008544378960796,0.0026509204385668,0.0028008015953647,0.004289136881835,0.0005813717550795,-9.8358216622931e-05,-0.0001907160076096,-0.0002082165564867,-0.0007470928122106,-0.0019258566539256,-0.0031475690966558,-0.003396243674646,-0.0019157795604674,0.0011527995519145,0.0046090904868919,0.0066763739011046,0.0059208886778242,0.0021250156483682,-0.0033810377070154,-0.0081726022316568,-0.0098209165175699,-0.0071252618591803,0.0016156619697364,0.0062295451344195,0.0108040849013596,0.0104046929013359,0.0049434736475868,-0.0031292838770368,-0.009968983040306,-0.0122532308984791,-0.008876246685175,-0.0015094640623266,0.0062821190885563,0.010882061847239,0.0104062835345468,0.0054795512224761,-0.0013152978245984,-0.0068687894124266,-0.0090077229544166,-0.0072895327008472,-0.0029094073126415,0.0020472713226174,0.0055639619815411,0.006452277108806,0.0046768801933717,0.0012231548273715,0.0001166173935577,-0.004731505057,-0.0050769009455357,-0.0035556505438305,-0.0010397888991804,0.0012865098033112,0.0049800080657221,0.0022361861211403,0.0009459673685458,-0.0005675145758812,-0.0015078815989304,-0.0015101300574724,-0.0007440643565491,0.0002834626317564,0.0010291682238705,0.0011371555581015,0.0005392005503109,-0.0005281068347133,-0.0015735934075257,-0.0020079739634857,-0.0014181759287767,0.0001438439465595,0.0020527444426637,0.0033272690271085,0.0031242768749711,0.0012514309076979,-0.001616422054615,-0.0017015348005153,-0.0052760051150449,-0.0042967556210338,-0.0016265994604423,0.0016878206494466,0.0043760842898335,0.0054321358770999,0.0044597491427238,0.0017899780141878,-0.0016303360349506,-0.0045481184570728,-0.0058465540301255,-0.0049846675843778,-0.002245380273198,0.0013467619958453,0.0044217554390161,0.0058001497798341,0.0049460162150053,0.0046575186877549,-0.00157380164807,-0.0049159175058788,-0.0066035583945882,-0.0058731706442588,-0.0028454359485216,0.0013763460092683,0.005064570509199,0.0066124273913767,0.0053238183386795,0.0017999713304228,-0.0023321439117621,-0.0052209028006468,-0.0056808035731826,-0.0036982334949199,-0.0003267128436803,0.0028977666463097,0.004662180331096,0.0043671327565797,0.0022671843679973,-0.0006933623506138,-0.003253774192753,-0.0043303077817068,-0.0034821344867776,-0.0011241029759314,0.0016704262951223,0.0036915220604116,0.0041386845055878,0.0029005400320112,0.0004895510494098,-0.0022345232521759,-0.0043644806060866,-0.0051703682071989,-0.0017774554105946,0.0006393206839782,0.001253168867538,0.0062932130896725,0.0045413988600364,0.0029045206131156,-0.0006583550381953,-0.0046336834190937,-0.004552049569407,-0.0064927665391911,-0.0029341066475335,0.0021084273739408,0.0062663719494668,0.0074852689121226,0.0050984138130049,0.0002212788957213,-0.004784476612511,-0.0074991999499251,-0.0066434493161264,-0.0026687277946061,0.0025145572552887,0.0064817819058114,0.0074291745995213,0.0049728946147743,0.0002706553438735,-0.004551213130436,-0.0073672338528667,-0.0069676393716707,-0.0035358747014743,0.001471927798604,0.0059554735943846,0.0080337210840334,0.0068010082705346,0.0026895236045827,-0.0026936134592349,-0.007193365265718,-0.0089674351314765,-0.0072462130269224,-0.0001861336284766,0.0028427396028517,0.0070309669885046,0.0106602453347181,0.0058166762506357,0.0009733528386857,-0.0044519079469164,-0.0083509943928751,-0.0092132856806817,-0.0041655931044908,-0.0016318698117435,0.0039681204913066,0.0079505999019872,0.0087350456819503,0.0059853442096454,0.0007852128043859,-0.0047578585045214,-0.0083704491757789,-0.008580576127441,-0.0053532617679602,-9.517218638847146e-05,,,,
-0.0006349087899373,-2.4767505543199095e-05,0.0006461912937599,0.00129051622209,0.0016933257920958,0.0015953627711551,0.0008673438259789,-0.0003421727897248,-0.0015965128678654,-0.0023354857969544,-0.0021503897397242,-0.0010259300989417,0.0006003272374314,0.0020202566885175,0.0025942367045521,0.0020614430460536,0.0006558451737156,-0.00101462653244,-0.0022393444684531,-0.0024927883761161,-0.0016411857237329,-1.9622567616019135e-05,0.0016560130547379,0.0025640425036337,0.0021785191612191,0.0006077464223939,-0.0013687268951368,-0.0026667493993798,-0.0025022537387641,-0.0008730922945122,0.0013912780723237,0.0030539415755131,0.0031307970354515,0.0014342375589135,-0.0012781717275373,-0.0036366358902432,-0.0043330874044615,-0.0028154277925377,0.0003606708055955,0.003736357607701,0.0056372744016455,0.0050019871568622,0.0019258088565243,-0.0023470777198577,-0.005958705966095,-0.007237101224061,-0.0054231636844736,-0.0010468286344952,0.0042029906869454,0.0081069985238733,0.0088367073839068,0.0057971789483213,-1.705644696764318e-07,-0.0062501447649005,-0.0102665517483029,-0.0101360347982835,-0.0056299987501519,0.0015458387883004,0.0083557933774315,0.0117293996673453,0.0100118674427506,0.0063282775645231,-0.0041690999419929,-0.0105372304091709,-0.0125765906271507,-0.0094640370674839,-0.0025523517751603,0.0052422658138678,0.010674075222631,0.0115247999661814,0.0075494961568516,0.0005875465232614,-0.0062685296703284,-0.0100953968804756,-0.0094583857078272,-0.0049672147290827,0.0011681228274981,0.0062695520585587,0.0083805880688984,0.0069621084543414,0.0028976147446209,-0.0020350453665143,-0.0059066402389743,-0.0048287927649593,-0.0059323301651814,-0.0024581705361693,0.0016152050805468,0.0047064150514774,0.0057325977223901,0.0044758706561923,0.0015982150992703,-0.0016876480603737,-0.0041338377566158,-0.0049257543492729,-0.0039161203846131,-0.0015821827869512,0.0011993895334366,0.003436572098295,0.0043095537315978,0.0059308945660842,0.001005010460738,-0.002155171064813,-0.0023155061520749,-0.0058023220131357,-0.0045850276430819,-0.0015745571890102,0.0020105782659355,0.004641694712378,0.0051660445231869,0.0033731735694954,0.0001339221562045,-0.002998739948899,-0.0045542181426401,-0.0038808223867916,-0.0014508323838786,0.0014339057763808,0.0033551123049307,0.0034942432874887,0.0019691497874371,-0.0003331171448901,-0.0022654849383352,-0.0029728372792536,-0.0022332249254864,-0.0004827678586728,0.0014313942413599,0.0026360543718826,0.0026002360447176,0.0013539334131649,-0.0005304783839656,-0.0022005617586717,-0.0029182718636833,-0.0023868591886832,-0.0008435795283775,0.0010964616243367,0.002714011711834,0.0034240238671347,0.0029139416808448,0.001206218441134,-0.0013138568100689,-0.0039082025709431,-0.0055903802012312,-0.0053874161868223,-0.0027456084991624,0.0020578795627316,0.0101704500749045,0.0141558004045334,0.0107601853837398,0.0015588344804906,-0.0184350382619606,-0.0465648105529988,-0.0051625623965246,0.0314354807431212,0.025603400643102,0.0089218796072949,-0.0018799861629675,-0.0088641399710098,-0.0058854735328219,-0.0045454160758981,-0.0101772439857222,-0.015975975658225,0.0079605222139678,0.0069225023055677,0.0158332618231398,0.0124823247018639,0.0037960979434232,-0.0066610490045768,-0.0108246389822583,-0.0112333944336429,-0.0123297893550651,-0.0037196771786354,0.0114249943264384,0.0153640903514548,0.0132773445014431,-0.0014977055665121,-0.0014839908174883,-0.0109062914075967,-0.0137342884788913,-0.0080556336123434,0.0108422567922661,0.0062442297235861,0.0011440975016908,0.0111640536770645,0.0041044203370212,-0.0137096265286026,-0.0088507362090784,0.0073451643258492,0.0065456079316382,-0.0218153781886284,0.0045229388271764,0.0120455682185322,-0.0016444441460615,0.0126199198955021,0.0124024182767348,-0.0064849682079312,-0.039051229350346,-0.0100478444894167,0.0130997048344948,0.0236039339246236,0.019510331824433,-0.0092310713499943,-0.0189448431237895,0.0004176509812785,0.0033357261243239,-0.0056558253959395,-0.0144953371481805,0.0100501202761541,0.0237876000274586,0.0146945417347853,-0.0091405003374068,-0.0383756482364824,-0.0243220227902791,0.0214769599001444,0.0333851050023977,0.0226657989256021,-0.0023073082249181,-0.0083592331451213,-0.0598525687091692,-0.0118746721589134,0.0263874804990699,0.0355031578480297,0.0133811418977664,-0.0043427304964388,-0.0136588504155976,-0.0183278875925809,-0.009284086231621,-0.005329942330292,0.0256669444495318,0.0261639543803739,-0.006928789495716,-0.0470890259330897,-0.002351440143055,0.0245962725770363,0.0238889435397472,-0.0009370759740252,-0.0213885768230938,-0.0003994068498265,0.0047653731246401,-0.0009675701932738,-0.0050451971088218,-0.0283969487662411,0.0148114494148052,0.0216776596973115,0.0262265689868217,0.0036151920657828,-0.0209905850268274,-0.0241111259754093,-0.0203661579046696,-0.0005862337306828,0.016992369713239,0.0235990348220644,0.0207590763911189,0.0014160166968847,-0.0253387167779612,-0.0225914236710103,0.0016594085233845,0.0022807193729899,0.0053170476668659,0.0120046068374371,0.0047446274844524,0.0018934772445093,0.0005284130228179,-0.0179376438126418,-0.0088855843188565,0.0039667313944831,0.0178534552635882,0.0008713649740129,-0.0071933909919698,0.0001130777811632,0.0029210621304376,0.0028973136304303,-0.0036315482727161,-0.0116332758919148,-0.0145450803935653,0.0165216963325952,0.0204493687417771,0.0047305089064861,-0.0066574141222094,-0.0092637757134133,-0.0074678038021214,-0.0044437538022243,0.0004442526734571,-0.0001844257263265,-0.0047184627660394,0.0166242553220079,0.017569512807751,0.003302015400493,-0.0062039769359169,-0.0140967130135501,-0.027440949230692,-0.0083838788027136,0.0116180619487012,0.0211392519308079,0.0191246054946501,0.0103381597436074,-0.0053526576555779,-0.0254865799347648,-0.011811105659156,-5.6989418177130645e-05,-0.0008538684611404,0.0022617480630092,0.0072043349782571,0.0082468380595733,0.0078416482717442,0.0039596279611417,-0.0027293474786789,-0.0064216642323533,-0.0094833729240015,-0.0064838984326508,-0.0062260787768252,-5.49689005619598e-05,0.0073307703512331,0.0110940484383373,0.0101504995853445,0.0051622850770087,-0.0017533556074974,-0.0078845118331445,-0.0109469373804477,-0.0098750187099251,-0.0051398451381012,0.0014678437513375,0.0074984556818111,0.0107336195286551,0.0100037251362268,0.0056219220336596,-0.0007532430292403,-0.0067746610249466,-0.0102978062443959,-0.0101381925596685,-0.0064300853548956,-0.0005143439200029,0.0055545164068171,0.0097035465634033,0.0105223565449319,0.0077165457661882,0.0021921449691906,-0.0042348124872201,-0.0093889523386325,-0.0113966116311856,-0.0093229785714922,-0.0036283062242268,0.003774691806187,0.0100539278342794,0.0125445299508384,0.0099854393238031,0.0032622689915291,-0.004840352175449,-0.0108527928406287,-0.012214538810047,-0.0084420805902075,-0.0013083995250657,0.0060102866395312,0.0103828408812262,0.0100979141941645,0.0055644085827804,-0.0009589243804523,-0.0064709948894842,-0.0086424973608466,-0.0068453862811258,-0.0023060891054461,0.0026402122048601,0.0057528144525315,0.0059090157016436,0.0034696735897816,-9.823727669455372e-05,-0.0030455919783629,-0.0041589456399599,-0.0032199273140535,-0.000973046848384,0.0013273175804094,0.0025657438004762,0.0022999487231097,0.0009173284657603,-0.0006526055970414,-0.0014958442683464,-0.0012274816051293,-0.0001787617054753,0.0008437267081171,0.0010853488658261,0.0003410184576263,-0.0008887115413204,-0.0016982674125539,-0.0013694582119031,0.000106500789293,0.0019273944060282,0.0029131115890692,0.0022472469264789,6.502827519339661e-05,-0.0025224338149228,-0.0040299070222794,-0.0034709775760257,-0.0009651417218152,0.0022823650235525,0.0046047181301423,0.0047455693293344,0.0025156907385633,-0.0010911339775902,-0.0043646703629347,-0.0056925055449473,-0.0043402640699952,-0.00083723596555,0.0032258244811297,0.0059190528782738,0.0058931309093789,0.0030566890872262,-0.0013293568474866,-0.0052098042174535,-0.0067019211795996,-0.0050204210964636,-0.0009076383682178,0.0036733298341118,0.0064811687503774,0.0061358066036494,0.0028551705382081,-0.0016514384027423,-0.0051121494342943,-0.0059176908852195,-0.0039251175086295,-0.0003966642118165,0.0028190389802011,0.0043128734216348,0.0037452976305393,0.0018018418587257,-0.0003700537664837,-0.001830145393403,-0.0022409270734777,-0.0018461031014323,-0.0011483985178646,-0.0005404786448219,-0.0001115082197534,0.0002957437519834,0.0008631584958266,0.0015790312155843,0.0021651008563956,0.0021931880470962,0.0013317867715751,-0.0004015869873648,-0.0025174699485362,-0.0041561094200127,-0.0044211090034624,-0.0028326182388686,0.0003123458526292,0.0038930799649007,0.0063352125149444,0.0062988106544106,0.0058701331876242,-0.0016219200823528,-0.0068168569136382,-0.0074902631323356,-0.0095141736636165,-0.0051927330962232,0.0015169226447364,0.0080134946374744,0.0115740476581673,0.0105123390961517,0.0049868143900124,-0.0029310669870648,-0.0100135131735901,-0.0131964611934815,-0.010939922115709,-0.0040197472494174,0.0046905713906349,0.0114519736830432,0.0133675711831811,0.0097147185019844,0.0022192132582386,-0.005835413591955,-0.0111556263087691,-0.0118469938669272,-0.0080480289665135,0.0008680608617122,0.0047177360190996,0.0086179021239935,0.008878135848811,0.005825762699854,0.0009838176960672,-0.0036603245684204,-0.0064589043710999,-0.0066797549973007,-0.0046545216200838,-0.0014746443741953,0.0015881053320993,0.003631391397883,0.0043738566544522,0.0040328231469431,0.0029800411240673,0.0014462606775209,-0.0005132854988208,-0.0027820470581254,-0.0048890786991449,-0.0059667424300315,-0.0051200466753924,-0.0020452782227729,0.0050004747379348,0.0067465061986641,0.0086140653876737,0.0068106526674116,0.0016641427899237,-0.0048433838223504,-0.00990080827556,-0.011163258259188,-0.0078721748023758,0.0012528941565732,0.0060051574637603,0.0108432792644871,0.0112120523113756,0.0069210485203983,-0.0002827645151077,-0.007429761177751,-0.0115589255200476,-0.010990806286323,-0.0060653182585585,0.0010458765762203,0.007379525720497,0.0105279095841754,0.0095961045911143,0.0053502199516681,-0.0003676660078187,-0.0055177471918617,-0.0085661670760439,-0.0087936049713781
-0.0095875082200321,-0.0077142943432939,-0.0027384778497061,0.0026185639808302,0.005753319842362,0.0080389837716425,0.0027238883223627,-0.0007229609729867,-0.002808810422175,-0.0026049612351725,-0.0006831415381502,0.0013305214278598,0.0018142844450026,0.0001967408852805,-0.0026257118653678,-0.004764207043528,-0.0044577266614568,-0.0012043924341332,0.0037597226621454,0.0079487532171539,0.0088750596581328,0.0054377938833845,-0.0012816483490882,-0.0083133530260057,-0.0121539365562782,-0.0105617594823499,-0.0038452202549504,0.0051077466015036,0.0121507822373611,0.013895400041495,0.0093836557897521,0.0005731867514753,-0.0085812355318944,-0.0139716435587448,-0.0132145427959071,-0.0066972769009336,0.0026551841198597,0.0107406047636988,0.0141081724979249,0.0114215280663522,0.003945799693579,-0.005078130019462,-0.0118417517899565,-0.0135564948327839,-0.0095890437498247,-0.0016982291097455,0.0067261411095488,0.0121167812224786,0.0147438572569463,0.0071169405178311,-0.0010596444279758,-0.0088108056576281,-0.0128674915106266,-0.0115864258038741,-0.0056222197647136,0.0024523404161126,0.0093222155125837,0.0123061136833931,0.0103557763204278,0.0043636645010573,-0.0032487553659237,-0.0094784928461043,-0.0118924496357739,-0.0095703652123474,-0.0034711574933861,0.0039451980663775,0.0097091619017784,0.0115464164458014,0.0087906831150364,0.0026210569882311,-0.0044628148054175,-0.0096825359431,-0.0110809328248881,-0.0082254180674789,-0.0022766681972486,0.0045168925311883,0.0096368144963303,0.0111355494518738,0.0082868090841789,0.001903065704884,-0.0033046179786428,-0.0094108849732701,-0.0138566341144279,-0.0105002411835993,-0.0027317792581494,0.0066127310337152,0.0136884349173274,0.0152352624530738,0.0101539320814627,0.0002465070946977,-0.0103501447566896,-0.0168860894221816,-0.0161506531529403,-0.0080736063286112,0.0040263773370853,0.0147726857428411,0.0191263060319045,0.0147766667225452,0.0033880112865056,-0.007490672355941,-0.0192183008045028,-0.0199890407480451,-0.0119069143559861,0.0038060050030709,0.0135502306280365,0.0192478160654303,0.0159992995368771,0.0056277404744017,-0.0068716595735573,-0.0158149047902084,-0.0174506830808167,-0.0114953450718779,-0.0009837100990067,0.0093224974205695,0.0151089658870759,0.0142716678266285,0.0075942204813455,-0.0018015358594997,-0.009889589423472,-0.0134310082706493,-0.0112494211544212,-0.0046031170839312,0.0034690213110932,0.0095253142777943,0.0112083233195621,0.0081818974438583,0.0021230235802284,-0.0041720978080282,-0.0080950569645579,-0.0083165682239875,-0.0051997810901278,-0.0004402640871258,0.0038093162593003,0.0058933455149787,0.0052797540631071,0.0026341462555484,-0.0006306826860887,-0.0030717312141204,-0.003836692661152,-0.0029074716837438,0.0015650460160958,0.0011343224152984,0.0024381428180358,0.0024396605179677,0.0008891310746195,-0.0024413139914277,-0.0079380735229896,-0.0158565877756619,0.001336729068244,0.0209938302159964,0.0208418417928525,0.0115397894243088,-0.003272223909453,-0.0145980493537744,-0.0339490190559479,-0.0445316622371783,0.0080417340427124,0.0460729632731794,0.0395946767702999,0.0126030639623765,0.0003980792446881,-0.0110313980953164,-0.025227184924034,-0.0367191810875315,-0.0338373517079401,0.0153782637135354,0.0380325166351743,0.0316921685621732,0.0178469664841471,-0.0038703362032415,-0.019528472540192,-0.0063085479439911,-0.0125044882258067,-0.0320817174420394,-0.0125444713805637,0.0286314819284401,0.0296375317146389,0.0102696018792674,0.005815028903308,-0.0115159500437702,-0.0107703953089108,-0.0070422316947236,-0.0087711318530664,-0.0204160160893927,0.0082009381126411,0.0381136860715845,0.0164733384195814,-0.0144379793739869,-0.0362580777396087,-0.0013429152592589,0.0186308014641386,0.0189166728409656,0.002350019250276,-0.0300638297606208,0.0060254034043383,0.0039640683070871,-0.0160613643990266,-0.0032476593238,0.0281852055024243,0.0184245551989413,-0.0028699238328716,-0.006989703279972,-0.0204877803863638,-0.042376343544593,-0.0026842405703476,0.0424347054779989,0.0406894887207154,0.0185179980087455,-0.019061399773339,-0.0293585222727555,-0.0601320017443636,0.0084917839245184,0.0356231846342926,0.0248417154413059,0.0146377535258871,0.0035095487544656,0.0016737506434697,-0.0309060381652297,-0.0581344261032553,0.0034834233544993,0.0327547081284091,0.0369715569635759,0.0490057798096894,0.0052973625028887,-0.060919332288509,-0.0798668878370059,-0.0003389931402489,0.0378097074027064,0.0380775544452725,0.0316094063845304,0.0123038048455408,-0.0092169656341657,-0.0291686348858118,-0.04319377566795,-0.0181680897888271,0.0249364806454471,0.0215183531450103,-0.0006219019436716,0.0094252343414922,0.0194161871879822,0.009088695027275,-0.0112517640534318,-0.0228996666607683,-0.0196342047411727,-0.0057222868408386,0.0018079364480091,-0.0030917421229258,0.0156274968476031,0.0303486362939606,0.0204965361650091,0.0016983676340496,-0.0200698974056218,-0.0341519116978244,-0.0188026252536421,-0.005603129793563,0.0059930712101487,0.0148577952538857,0.0293138641657806,0.0247586261070163,0.00478118347291,-0.0158039477670739,-0.0233042372971813,-0.0241620517199468,-0.0222708165775494,0.0050443674365058,0.0158500909534148,0.0271234773816479,0.0296242623325264,0.0108575763299698,-0.0153995489329719,-0.0382323003709031,-0.0095548389640209,-0.0037983722765031,-0.0049356768989465,0.0054071868084948,0.0192174388383017,0.0217606522773546,0.007540387887672,-0.0043649605266981,-0.0172208772174337,-0.0200862988932278,-0.0048121756776039,0.0047086869401432,0.004998957643347,0.0069938595541118,0.0078416747370443,0.009387609237697,0.0042748889834926,-0.006461714905191,-0.0156902728801254,-0.022241073754315,0.0009074064472014,0.0151618058600574,0.0155658880031341,0.0070724687263637,0.0029863087893791,-0.0009663216946441,-0.0080570653503378,-0.0134359939829984,-0.0112445817823125,-0.0030890897643897,0.0065158813947074,0.0088324080706643,0.0113191465655853,0.0093730953627097,0.0090376185615513,-0.0064189429650651,-0.0205397040179382,-0.0157326130410115,0.0020009324017571,0.0039608907842707,0.0029966119707966,0.002688269191212,0.0098119355946587,0.0088859413025105,0.0046707227215718,-0.001879468208703,-0.0061024199082821,-0.0092272853165762,-0.0214229209350106,-0.0006709135815546,0.0095488430092508,0.0109118648301285,0.0079619194190148,0.0034291405044139,-0.0009879821833595,-0.0001435607624522,0.0001432781979348,-0.0017798908264198,-0.0066615713750572,-0.0104451821042514,-0.0074387859925171,-0.0002957392505899,0.0068340131763321,0.0115751150231001,0.0119506021800233,0.0075202138748035,-0.0001486231639312,-0.0080062874913493,-0.0128086133884491,-0.0125333439789195,-0.0072597498311201,0.0008668764126995,0.0085450176267497,0.0126942792088241,0.0117147295690546,0.006112902894314,-0.0017460448756825,-0.0086451988878148,-0.0118602181173448,-0.0102675694143943,-0.002253344408802,0.0022224047232156,0.0077348696108097,0.0096823460222071,0.0075565810545602,0.0023071170745802,-0.0044693392956513,-0.0113667867581719,-0.0125152024850704,0.0051234913019917,0.0081624575601454,0.0067078200835592,0.0006556744524812,-0.001408809891189,-0.007815452056702,-0.0027333501090015,0.0008757533875096,0.0027694999291726,0.0031282101881871,0.0023936938100594,0.001075561818242,-0.0004138199186896,-0.0017876638372502,-0.0027821001188376,-0.0030692089561922,-0.0023365755090276,-0.0005308088227303,0.0019134387443226,0.0040812571956813,0.0049124626716243,0.0037348388851731,0.0007079694634677,-0.0030973968555444,-0.0060748610381884,-0.0067635009427759,-0.0045370473517893,-3.3331902621287805e-06,0.00508347053391,0.0084446896512936,0.0082736592890843,0.0042094369659175,-0.0022364036462559,-0.0081647774072303,-0.0106009953220254,-0.0080419175937742,-0.0014066370227296,0.0062189009085351,0.0110368535191632,0.0104971789293469,0.0047140411927132,-0.0034825314311746,-0.0099599594732784,-0.0114352247685175,-0.0071946845811927,0.0005622074724193,0.0079165159073635,0.011263669801987,0.0090803094716809,0.0025582101067142,-0.005097326449067,-0.0102551769509521,-0.010547845036759,-0.005914502141183,0.0014335233632175,0.008082303951241,0.0110118021711035,0.0089641032190378,0.0029495239080306,-0.0043018905621431,-0.0096243052078127,-0.0108111713345741,-0.0075103006629343,0.0012066495457783,0.0050622998677958,0.0088072483989861,0.0109590885366614,0.0043955181336948,-0.0014560254621672,-0.0065570044824294,-0.0088762052279607,-0.0076995582308884,-0.0012898179480513,0.0010718945728381,0.0049110402902058,0.0064021370111488,0.0053272102345861,0.0024799998879732,-0.0008231942528602,-0.0033458908971527,-0.0043916008249262,-0.0039528305075368,-0.0025279605306893,-0.0007496837536611,0.0009356764726377,0.0023472249529741,0.0033941056431182,0.0038315149031056,0.0032164327966207,0.0012066406207782,-0.0019483071283919,-0.0026567251981216,-0.0068564549691093,-0.0058804757536423,-0.0022417722244802,0.0026734288426608,0.0066691609222421,0.0078119842135845,0.0054375732418279,0.0005403256777513,-0.004660117534392,-0.0077597358988052,-0.0073118603214636,-0.0035222020282238,0.0018367785711617,0.0062571633471195,0.0076799856588469,0.0054656191746235,0.0006853236213353,-0.0043989003215544,-0.0074085033296783,-0.006960295069563,-0.0008095528434503,0.0017542704891272,0.0057618592996368,0.006800671495824,0.004454100699731,-5.916069391892302e-05,-0.0045429267031661,-0.0068980963686213,-0.0060895130973973,-0.0025676662519992,0.0020151391111956,0.0056214772605304,0.006764217941942,0.0051114084477521,0.0015074811299998,-0.0025235257655124,-0.0054788365995333,-0.0064275441198284,-0.0052101115892483,0.0001652382087131,0.0012351034962833,0.004325774556942,0.0058692884032679,0.0052466441139784,0.0025624446619381,-0.0012640236477139,-0.0047424890794382,-0.0064061848773454,-0.0055044564271972,-0.0023976486615418,0.00159887404125,0.0048319283143117,0.0060346662956462,0.0048113718484078,0.0017360438897987,-0.0019044000818418,-0.0046151629199134,-0.0052912365494033,-0.0036905318613058,-0.0005609270797356,0.00267430619995,0.0045518150923032,0.0042326423817919,0.0018888202535588,,,,
-0.003309464254514,-0.0040481748009864,-0.0033360265818071,-0.0016543919119656,0.0002222131693099,0.0016137975336001,0.0022020004379538,0.0020653217474864,0.0015208153837486,0.0008939321117112,0.0003430033254645,-0.0001754912949583,-0.0007887851992941,-0.0015183193825888,-0.0021573214066828,-0.0023205858683904,-0.0016626781509226,-0.0001463146936626,0.0018105546116516,0.0034355802450142,0.0039402807550938,0.0029282010065426,0.0006414136479152,-0.0021003002114858,-0.0042379261447845,-0.0049157567002578,-0.0038207763925733,-0.001285935043483,0.0018506339320803,0.004535951755155,0.0058214079512934,0.0051365454334632,0.0024943959875958,-0.0014067987499066,-0.0052764987567552,-0.0076028461806521,-0.0072435016440162,-0.001510106284478,0.0010519280331284,0.0059508373673519,0.0085854240381591,0.0077110039809047,0.0035435800919902,-0.0022649698502715,-0.0072977561292086,-0.0094285816083238,-0.0077746614107807,-0.0030690035540229,0.0027282643861653,0.0073409383021526,0.0091132357138279,0.0075460120305259,0.0033135355005937,-0.0020824914758413,-0.006806198228925,-0.0092115266702823,-0.0083440653072147,-0.0043191541220247,0.0015877083651485,0.0072630676549601,0.010464183467426,0.0096982818375343,0.00492765854265,-0.0022339420101722,-0.0090025882111821,-0.0124797801128273,-0.0108991015030053,-0.0045252574284007,0.004254023677619,0.0117856161779646,0.0146710323670405,0.0113163433590487,0.0027964680594705,-0.0074295797481709,-0.0149172159077269,-0.0161900966977742,-0.0103873010021376,0.0001900466368648,0.0109811349353421,0.0171916453181654,0.0160163261742035,0.007956434488318,-0.0034382089933262,-0.013246054901628,-0.0173919709059833,-0.0143362223266814,-0.0055460150825865,0.0052893423124662,0.0138191646856479,0.0167068884348339,0.0128552594601198,0.003812736413725,-0.0067882945846142,-0.0146273865235964,-0.0164480141043639,-0.0089706686091778,-0.0018346399130093,0.0082534919288804,0.0143936772870638,0.0139957423014508,0.0074369243558105,-0.0021508568108645,-0.0103626966914707,-0.0135721420058793,-0.0105636727311461,-0.002984224855549,0.0055378489730095,0.0111193730098963,0.0113642637003454,0.0063582057182146,-0.0014631536732056,-0.0084577428364755,-0.0089367253656448,-0.0091456153687843,-0.0028406375309028,0.0043893902995634,0.0091792097963908,0.0094887993590495,0.0054740145818329,-0.0007496383396696,-0.0062514655308536,-0.008699613462056,-0.00734358536008,-0.0031550429101808,0.0018286440731964,0.0055374169556793,0.0092215631906071,0.0052546079486707,0.0019395041325501,-0.00191020411426,-0.0049602739135555,-0.0063010657358464,-0.0056757621652984,-0.000937233503971,-0.0003433710183521,0.0027079992858327,0.0049248865745261,0.0057379701939957,0.0048218193346133,0.0021862699585387,-0.0016357292854482,-0.0054936966291609,-0.0078537564902159,-0.007408728626539,-0.0038128766277661,0.0018871457146748,0.0074660214145598,0.0104027073839827,0.0090773385595873,0.0036888542177671,-0.0036395017182293,-0.0097241726596459,-0.0117918463188229,-0.0088241342558252,-0.002072172783701,0.0055264337814089,0.0107125596434793,0.0113580381713472,0.007329740641334,0.0004372732257764,-0.0064193442418846,-0.0104728712773491,-0.0101751791225283,-0.0057590886333243,0.0008938615748475,0.0070155645063803,0.0100693157825204,0.0088012615120801,0.0037883512030397,-0.0027769713906623,-0.0080041086396843,-0.0095539042591447,-0.0067001223772313,-0.0007320760014995,0.0055459377435132,0.0090915854187789,0.0081325639778737,0.0031271164755635,-0.0034076730532293,-0.0081767781841991,-0.0088137281987916,-0.0050719999361002,0.0011188259361979,0.0066960579707739,0.009005779010075,0.0070531107521844,0.0018789083969482,-0.0040538445339553,-0.008088117669985,-0.0085729416931203,-0.0054860164920748,-0.0002833856251178,0.0073207904431663,0.0077422615768191,0.0072907006527785,0.0036336321128174,-0.0017339649150972,-0.006559933274923,-0.0062560387295791,-0.0073416988540778,-0.0029453546482415,0.0024726827131718,0.0065348987191131,0.0075285286435683,0.0051630424388288,0.0006614903908115,-0.0038483733961849,-0.0063405916986907,-0.0058121468409824,-0.0026896247540542,0.0014463160940679,0.0046501836197633,0.0055124322261574,0.0037534037151602,0.0002770068231284,-0.0032852024583179,-0.0053029248081051,-0.0048381777430249,-0.002037646755097,0.0019119880047995,0.0052546521526725,0.0063991458735796,0.0046357499241675,0.0005253921741729,-0.0042446590940806,-0.0075320662885633,-0.0076899293418342,-0.0043806298459604,0.0011578496709479,0.0065783185136675,0.0094477157410565,0.008360233280527,0.0036211635912842,-0.0028230052221087,-0.0082054108434792,-0.0101726987798591,-0.0078708595775424,-0.0023445419276344,0.0039650929707078,0.0083678785626036,0.0091362461348332,0.0062082685980167,0.0010993895785089,-0.0038815559224857,-0.0067196577822913,-0.006570885850727,-0.0040153944908926,-0.0005853886318707,0.0021399832826369,0.0033363444346414,0.0031818824853415,0.0024713601846341,0.0019162396232209,0.0016149716444473,0.0010287317556159,-0.0005320874358714,-0.0032113540933918,-0.006141014024244,-0.0075656696435409,-0.0056339827972253,0.0004408375839931,0.0093904408722586,0.0175412140700425,0.0192669636697703,0.0081591686227749,-0.0210956764370752,-0.0552491185438239,-0.0208207781271822,0.0286090226669211,0.0413378279786892,0.0205181875832094,0.0032051777826839,-0.0094346524115377,-0.0178898832410399,-0.0190187403917862,-0.0236570943855179,-0.0156916066649818,0.0294228300154223,0.0404446474503458,0.0263770095171662,0.0042543594562087,-0.0356112183200132,-0.0459597594917121,-0.0239211681959854,0.0417223362565179,0.0377413871026484,0.0031802716328647,-0.0281331072449373,-0.0144592215585992,-0.0213704097565785,0.0256438058388277,0.0598404352464122,0.0299332464080552,-0.0361841736111668,-0.1165276204029959,-0.0487627343973241,0.0563499423300423,0.1152191824706597,0.0652084558258425,-0.025195691077795,-0.0967890377846197,-0.0556292390689696,0.0062574058217044,0.0310779843922752,0.0446334460614412,0.0051870430306119,-0.0489594414522392,0.0192700564866105,0.0339739975998298,0.023642346650478,-0.0068394855811345,-0.0696422348593665,-0.0335682191956407,0.010455253510723,0.0327346215565157,0.0241672804359738,0.0232990267670016,0.0079502785031952,-0.024898598825373,-0.0110315405501673,-0.0056968820755446,-0.0266189921243591,0.0111232748742187,0.0133472684243384,-0.0011806673799542,-0.0046032003190505,0.0087304236547333,0.017157800247738,0.0085159707829828,-0.0057109344348079,-0.0178412038590213,-0.0137241731347061,-0.0028090374211543,8.760049370057901e-05,0.0032101674109071,0.0082325058824789,0.0085420906264537,0.0073264442237952,0.0037014932286344,-0.00240008993953,-0.006255989337225,-0.0127601444882387,-0.0129136761302871,-0.0088784113459059,0.01802730101541,0.0263835160257178,0.0132147302668151,-0.0114936472254382,-0.0337781275898111,-0.011387329987343,0.0144403709266804,0.0126887575937841,0.0090451252720416,0.0023532801364802,-0.0005982373155618,-0.0049960029326932,-0.0084041420029359,-0.0066679124606085,-0.0022444667942939,0.0003059952377835,0.0008812739600777,0.0065244035600924,0.009235768032745,0.0085970530859605,0.0045433311818254,-0.002559627849925,-0.0118658022989724,-0.0219331213086783,-0.0110108491895255,0.0085376193144307,0.0138988363017798,0.0117273432456767,0.0096798323306274,0.0022279977934435,-0.0050884411058084,-0.0078207662603331,-0.0072240525954351,-0.006437376499869,-0.0041934983331502,-0.0004051311251846,0.0038697869691279,0.00705240758806,0.0078733546903716,0.0059804856944948,0.0020605999743558,-0.0025025817274394,-0.0061916439547497,-0.0078618753366469,-0.0070272891943801,-0.0039116150944691,0.0006545218501781,0.0053974564270553,0.0087944844594866,0.0093456170502871,0.0059823929287085,-0.0014151176931699,-0.0115425946275591,-0.0068908333036613,-0.0060562698471619,-0.0014664378541888,0.0021648288379023,0.0046590813516484,0.0047128931413562,0.0033784869545277,0.0043613632276694,0.0014206632008784,-0.0027547971625339,-0.005566859505944,-0.0057156245668353,-0.0034876520866678,-0.0002208655449814,0.0025748108541817,0.003921735262617,0.0036327846032208,0.004644157503254,0.0001307611025112,-0.0017946467695887,-0.0031494024966811,-0.0035688033222802,-0.002877660651023,-0.0012096921630981,0.0009391002895755,0.0028063083623773,0.0036211560771,0.002945597586728,0.0009458069756524,-0.0015724896411731,-0.0034509694578649,-0.0037113726605686,-0.0020914960480502,0.0007175749375193,0.0033224369255555,0.004302935932952,0.0029867267045689,-0.0001079285990967,-0.0034489141471285,-0.0052438907710165,-0.0043944578920315,-0.0011331603648873,0.0030269653572867,0.0060278068368094,0.0062979231064239,0.0035347442157653,-0.0011446809618913,-0.0057115536274108,-0.0056319741178549,-0.0072859690852726,-0.0034677606990288,0.0017780084692482,0.0063379893598153,0.0083908760486019,0.0071249071949508,0.0030414159879398,-0.0022681442945627,-0.006756657409637,-0.0087027194504255,-0.007354985485517,-0.0032253577142492,0.0020795576033401,0.006464974355885,0.0081990960656847,0.0091470505376733,0.0025173828380104,-0.002472318421628,-0.0063261580846302,-0.0076182472244972,-0.0060836934157976,-0.002626194474359,0.0012353336956047,0.0041186835088794,0.0053038153514331,0.0048158534910126,0.0031532300405596,0.0009283465402816,-0.0013462963133652,-0.0032658774448957,-0.004442500163117,-0.0044871586011757,-0.0031617396814736,-0.0006293238052104,0.0024042912124385,0.004837768180028,0.0056086755101184,0.0042188926330963,0.0010736205095301,-0.0025826350407354,-0.0051760945103517,-0.0055634551224314,-0.0036457418104573,-0.0004441795708376,0.0049436122672605,0.0036804296232633,0.0028666779072337,0.000717275191844,-0.0013950592529161,-0.0022775467248666,-0.0016001414883297,-1.532889165617598e-05,0.0013186373041482,0.0014888404160593,0.000384497198914,-0.0012641498033244,-0.0023591501892654,-0.0021140528223016,-0.0005333705074608,0.0015774440133027,0.00306770590651,0.0030972811227926,0.001609926209548,-0.0006547320944376,-0.0026040280471153,-0.0033932658602713,-0.0003292898308091,-0.0013963791445091,9.277358306961122e-05,0.0010154917797639,0.0012555413688548,,,
-0.0023327763775885,-0.002761447093098,-0.0018980882655892,-0.0001620488903226,0.0016288768081869,0.0026001085981372,0.0022386415287025,0.0006850313137944,-0.001291263103231,-0.0026606986162454,-0.0026699709450239,-0.0012630039159532,0.000851953291506,0.002556479299401,0.0029318808702227,0.0017849629152038,-0.000232802180504,-0.0020013681724911,-0.0025828471948474,-0.0017527888607814,-9.828625149082712e-05,0.001359001579666,0.0017766823808507,0.0009805054221647,-0.000448295456119,-0.0015339645286651,-0.0015128908732296,-0.0003327577364529,0.0037558823113506,0.0020931150662945,0.0013377777079229,-0.0008717722938594,-0.0033444679743832,-0.0045008247303012,-0.0033567210137462,-0.0001931258685105,0.0035091900140961,0.0058396145236365,0.0054904758533293,0.0024784837821782,-0.0018327833385337,-0.0054161186772585,-0.0065993907407102,-0.0048739668437332,-0.0010812304158041,0.0030665243070725,0.0058149224072574,0.0061068551939934,0.0039345591669607,0.0002503034379879,-0.0034469745551436,-0.0056783835692472,-0.0055379289853415,-0.0030662481875985,0.0007082832069403,0.0041381852664815,0.0056503294040157,0.0044937869659907,0.0011777408404304,-0.0026788731059043,-0.0050985092549218,-0.0047719410925332,-0.0018180897771118,0.0021895269479067,0.0050148940246582,0.0049790089371151,0.0019401698857173,-0.0025316930695789,-0.005929964908761,-0.0061626466155463,-0.0027705578166257,0.0026751814996227,0.0072894857229475,0.0083936680992466,0.0050332605139487,-0.0013777494531325,-0.0076933827341126,-0.0106321506518623,-0.0084775139102082,-0.0019936142466169,0.0058917937555757,0.0114580178531173,0.0119477757551142,0.0068902566718744,-0.0016139343462284,-0.0097853146916621,-0.013854805612455,-0.0118034741301749,-0.0043517875923256,0.0052934697640442,0.0128555121484722,0.0149211440546176,0.0104880454219532,0.0014143716525121,-0.0084112041768142,-0.0147719597155719,-0.0149275627724251,-0.0087593790052038,0.0011804508899272,0.0107055017651574,0.0157107742078897,0.0139163411995515,0.0084230203947218,-0.0024576563251726,-0.0141005356460768,-0.0175586806414807,-0.0137860256821019,-0.0043644971008019,0.006657423352448,0.0145825502697347,0.0161666334493057,0.010986152389252,0.001483930146934,-0.0082156557473601,-0.0141008265525632,-0.0138995713154783,-0.0079365877581059,0.0010591153387876,0.0091240229811252,0.0127866596295195,0.010639318934429,0.0039904838838702,-0.0038048188821429,-0.0090534590963005,-0.0095810886174056,-0.0057349834908832,-5.921501881230719e-06,0.0044776531684858,0.0081750491659539,0.006039575994593,-0.0003308506729019,-0.0038548045162219,-0.0056331414481242,-0.005506491669085,0.003076832280531,0.0089182303834666,0.0040826920193272,-0.0020948282685762,-0.0061954973281534,-0.0064236705584633,-0.0038616904719777,0.0014149311048516,0.0072910901576012,0.0101612620099793,0.0063774710633394,-0.0059882745800012,-0.0062163040540223,-0.0146023074679149,-0.0027706306723881,0.0078258349845227,0.0052850425363832,0.0044626810057564,0.0070289128414187,0.005450440479151,-0.0014838140394234,-0.0189723959158505,-0.0230140951012867,0.0108989252681651,0.0190181875265174,0.011171496080806,-0.000313829603586,-0.00612315130172,-0.0078907825397472,-0.0056923377059379,-0.001250784417489,0.0115753209378204,0.007930545874513,-0.0098023629171877,-0.0079684458985495,-0.0100633968098527,0.0046593532740218,0.0103552746615839,0.0140749290041996,0.0134364323080642,5.245308103941889e-05,-0.0229212670741982,-0.0346548847956039,0.0040124580905159,0.0066089585125744,0.0167722334769609,0.0311126525618726,0.012632860469498,-0.0252031581207243,-0.0547026051212899,0.0212329987396794,0.0342872433779643,0.0136496474304524,-0.022737893552666,-0.0455759439923495,0.0109357068724405,0.0273602392368531,0.0276963354835549,0.0130536048179416,-0.0110545773136729,-0.0466652129354576,-0.0505061040497492,0.0343049351299186,0.0553520260143123,0.0303439830380545,-0.0034833930092694,-0.0409540172442989,-0.0500576810337394,-0.0016326874464352,0.020962460512877,0.0285319316767163,0.0209034059704884,-0.0009444293110898,-0.0068763835922414,-0.0025768345855024,-0.0266512277216863,0.0039667718809505,-0.0132270934115495,0.0049910300404676,-0.0063741170241935,0.0061527529973615,0.0370338733854459,0.0195005306096804,-0.0057895104081135,-0.0252549522862987,-0.0180806525981686,-0.0129732930589229,-0.0105721977929661,-0.0014510152858184,0.0154420617220033,0.004926294450802,0.0517386719277148,0.0342503125956551,-0.0166288861420361,-0.0523201058457421,-0.0446515446544602,-0.0350372893101157,0.0075726311448452,0.0487375245101971,0.0492958165464596,0.0257081913039778,0.0079714026522987,-0.0075866029890199,-0.0339617823436888,-0.0740240898370999,-0.051576130838668,0.0477098334817803,0.0529260307315473,0.0299775690336096,0.0170341740416259,0.0003401724600946,-0.0077531903314848,-0.0141784983765813,-0.0261592569728753,-0.0306013865680285,-0.0338557866223324,0.0045288345069575,0.0557695301988344,0.0466831404328246,0.0157312594967665,-0.0146973689235774,-0.0142081142233626,-0.0191306459958154,-0.0085972723712424,-0.0332694785596033,-0.0471342206778536,0.0382591833652984,0.0596769487466365,0.0363885250681703,0.0045947231276612,-0.0333866568891116,-0.0195020304512531,-0.0137664964474181,-0.014542149383828,-0.0119575569201333,0.0063975134897022,0.0218459272864154,0.0372176122785714,0.0040003774031789,-0.0154205393762988,-0.0038482498515319,-0.0146816209866484,-0.0167649894561629,-0.0081605618696565,0.0038275539729085,0.0165034168696001,0.0189050912807554,0.010581886187469,-0.0037348848017165,-0.0072044911981872,-0.0139988058498377,-0.0198469700164234,-0.004978904690253,0.0173575992219556,0.014531593264825,0.0044398142838389,-0.0071632717990027,-8.617030279731103e-05,0.0050705816442774,0.0036268395630254,-0.0049474009638155,-0.0097208115088729,-0.0123368619603862,-0.0061113086054711,0.0088416608046422,0.0179345362551457,0.0074195237895947,-0.000498710495639,-0.0044390505358173,-0.0044271007986045,-0.0036257698877939,-0.0014040967672796,-0.0017168602352223,-0.0034435044682027,8.697211980682452e-05,0.0015371396982254,0.0011064027024119,0.0038193027500396,0.0047700817666433,0.0039516579218893,0.0015743218304996,-0.0017348343550382,-0.0049207036854119,-0.0067652114398359,-0.0063527245262659,-0.0035289440038894,0.0008939964891134,0.007824646247394,0.007930926195485,0.0073984463937257,0.0036425214190138,-0.0019518639489159,-0.0070148411301808,-0.0092426417273638,-0.007540111165128,-0.0026531094089712,0.00313329353942,0.0071483768268523,0.0077117895099396,0.0049289207610242,0.0004743168148981,-0.0009423390564226,-0.0052826751516468,-0.0048400280613629,-0.0030422302786705,-0.0011879625786523,-0.0001341821676117,0.0026393226708105,0.0003424465786527,0.0012033709627026,0.0027758486579526,0.0041741730610949,0.0039996119308168,0.0013441199496792,-0.0032498929874151,-0.0076564513637696,-0.0091885406808483,-0.0062789142625318,0.0002785608712786,0.0074645280604831,0.0115964959013713,0.0103921437196525,0.006748266517443,-0.0040203265758391,-0.0106831229936383,-0.0128685283120382,-0.0097643811885487,-0.0028287951034437,0.0049726313522907,0.0104899050244917,0.0116721093628992,0.008298629301677,0.0019248479112585,-0.0048511694342017,-0.0094497194207397,-0.0102755413726172,-0.0072471312450427,-0.0017265600456007,0.0040879036055909,0.0080451168843098,0.0088452750610818,0.0064565916545894,0.0020031194784069,-0.0027869006745192,-0.0062863839872489,-0.0075013166388973,-0.0062567260420131,-0.0030908836145285,0.0009796809989656,0.0047222695277302,0.0069745616410729,0.0069609400192768,0.0045728157859904,0.0004922054487102,-0.0039450859758793,-0.0071625994788323,-0.0079160743428414,-0.0057959905302727,-0.0014317029339483,0.0036881384896899,0.0076946490847312,0.0089658776574747,0.0067581443484669,0.0016561220724677,-0.0044248476050911,-0.0088861837903811,-0.0096150790727434,-0.0061220643597032,5.379154951406207e-05,0.0060244530680547,0.0090111917697725,0.0077704068674917,0.00318082093741,-0.0023133127161928,-0.0060480507291143,-0.0065022793022037,-0.0039484657950388,-0.000104760616481,0.002933040127819,0.0038310049064807,0.0026004712090769,0.0003750271780553,-0.001386581344615,-0.0017523674091697,-0.0007546869195153,0.0007593607468345,0.0017045859114466,0.0014048063950912,-3.797183369294317e-05,-0.0018213350516308,-0.0028942019006829,-0.002531383295653,-0.0007393630123388,0.0017061856052036,0.003617675372476,0.003985273864601,0.002507180892345,-0.000224199760614,-0.0029944397044493,-0.0045561361208456,-0.0042140741271342,-0.0021096195996671,0.0008920125444479,0.0035935152392264,0.0049328126413919,0.0043638979717931,0.002056621660976,-0.0011423389442997,-0.0040025658196984,-0.0053808771734864,-0.0046900323775135,-0.0021554288623486,0.0012640374941923,0.0042594161754484,0.0056903971774644,0.0050186856883135,0.0024896519976868,-0.0009819492820905,-0.0041505958856629,-0.0058752082976445,-0.0055193152487813,-0.0031961355109329,0.000240989847772,0.0035028731364192,0.0078629052457522,0.005126613451789,0.002907194478864,-0.0003891903570293,-0.003448857062652,-0.0051681080674013,-0.0051284586609281,-0.001164901138264,-0.0015579212021564,0.0004508228077067,0.0020277012458799,0.0032175504780623,0.0040605036700019,0.0042537260924306,0.0032139695566323,0.0005571357591397,-0.0033372040869198,-0.0071277087621501,-0.006456105916927,-0.0074183498918821,-0.002500956261671,0.004141734801086,0.009769205526222,0.0117516391696486,0.008858413683428,0.0019901967862913,-0.0060870150862191,-0.0119424265063166,-0.0130411937401899,-0.0088873605197314,-0.0012065745676738,0.0068619776442264,0.0121270127201333,0.0126312181400379,0.0083486289760611,0.0010828332934548,-0.006317786546959,-0.0110852196187968,-0.0115710245510342,-0.007818698959307,-0.0014551602929495,0.0050398493348761,0.0093473459347787,0.0101473872098801,0.0074571770173172,0.0024351268758852,-0.0031422277324818,-0.007470488897285,-0.0092124436785242,-0.007840838660175,-0.0037946815087575,0.0016061438933488,0.0065210139243466,0.0091703509379754,0.008481929629245,0.0045693114808137,-0.0011951464293409,-0.0066317026148509,,,,
