0.0083545296889497,0.0111204254898895,0.0093368767572932,0.0037723096166223,-0.0032042865596791,-0.0086578373181765,-0.0103625276091384,-0.0077550489169424,-0.002136756108185,0.0039667236397287,0.007979645455555,0.0084157258054027,0.0054436682542003,0.0006498039131092,-0.0038118210480007,-0.0062084960093377,-0.0058883344588717,-0.0033827296901529,-1.1356859155370965e-05,0.0027691508461042,0.003981467301844,0.0034668479338844,0.0018306216888282,4.44575821530258e-05,-0.0010906630267227,-0.0013398244606416,-0.0010646009505263,-0.0008701271220675,-0.0011027398142469,-0.0015514745441646,-0.0015828988166305,-0.0006392040783833,0.0012435493385703,0.0032862142990754,0.0043385447126312,0.003560154995081,0.0009770085037099,-0.0024363907819172,-0.0051937205362594,-0.0060018569586568,-0.0043715209905167,-0.0008559596588965,0.0031693160939053,0.006077243488119,0.0066674978500261,0.004671126768346,0.0008690050829536,-0.0032312067527042,-0.0060253518113659,-0.0064770941335549,-0.0045245277807024,-0.0010541873602496,0.002529787808183,0.0049217148124042,0.0054196536581083,0.0041075381841634,0.0016849633629908,-0.000917280781717,-0.0029248014912177,-0.0039346462930288,-0.0039011568731616,-0.0029780120048804,-0.0013760488667108,0.0006543796430984,0.0027405554149502,0.0043315943889738,0.0047941750537736,0.0036801819577234,0.001046134343847,-0.0023805233084785,-0.005350102792621,-0.0065575393304938,-0.0052483701365454,-0.0016748466039062,0.0028648717374272,0.0065001572103952,0.007606445559873,0.0055873311015614,0.0012152999298807,-0.0036720704353723,-0.0069972028842385,-0.0073905300031406,-0.0047925980844698,-0.0004215869240057,0.0038460868250962,0.0063351206590329,0.0062391722520844,0.0038292798533277,0.0002073934184306,-0.0031982032023652,-0.0051678506242542,-0.0050954143131925,-0.0031663276167386,-0.0002514073968892,0.0024663974947585,0.0039869804555193,0.0038777842034252,0.0023771154589893,0.0002158704958392,-0.0017139391927343,-0.0027058584101399,-0.0024999292947242,-0.0013679702134793,3.762616868590265e-05,0.0010249217240494,0.0012184894067391,0.0007283119488548,3.936765385308802e-05,-0.0003051373019103,-4.271995424634573e-05,0.0006375308199384,0.0011940135365634,0.0010600384629233,2.159249133303021e-05,-0.0015789098333372,-0.0004689953851197,-0.0033718151290434,-0.002446093009091,-0.0004510833904942,0.0018767740889245,0.0036177016746125,0.0040354493396487,0.0028853383757578,0.0005300870945075,-0.0021873726368766,-0.0042591380630746,-0.0048860678795159,-0.0037703421938471,-0.0012297524575904,0.0019004860418934,0.0045463052436783,0.005758964121283,0.0050361292298932,0.0024951748446181,-0.0011387447194924,-0.0047120790409709,-0.0069559769585928,-0.0068890968534274,-0.0042220115400137,0.0003866055667969,0.0053891393443684,0.0088114216076172,0.009029392463368,0.0055650589124022,-0.0005021219497845,-0.0068108598430968,-0.0106686740298999,-0.0102827786920662,-0.0056559217006902,0.0013487074363041,0.0078372691795227,0.0111853282876953,0.0101501817978618,0.0052898091147042,-0.0014110095380316,-0.0074228034960387,-0.010625287388209,-0.0099883004111517,-0.0058270715845198,0.0003682487921306,0.006444444866833,0.0102929221285503,0.010549780911326,0.0070654494557132,0.0009784328690596,-0.0056435405606328,-0.010480897275067,-0.0117372768698702,-0.0087698403330797,-0.0023832693115259,0.0053217678469685,0.0115573075042914,0.0137964582862786,0.0107853506376983,0.0032233585582892,-0.0062524453999672,-0.0139087260521324,-0.0163577914972043,-0.0120662588452303,-0.0022835707596203,0.0091060202066344,0.0169071532504984,0.0166941333284691,0.0093139541825405,-0.0008242632745499,-0.0083769487841592,-0.0119964749820724,-0.016796744694454,-0.0120616649623989,-0.0025673870211979,0.0069569982027978,0.0138662379497476,0.0199838522962587,0.0146684222433888,0.0048049203973494,-0.0090153605758923,-0.0209597357216357,-0.0188341564277553,-0.0142041789250221,-0.0007492339602665,0.0088279317378323,0.0188235028181147,0.0194312116898652,0.0125042545388005,0.002333742318505,-0.01032333994362,-0.0193378893081058,-0.0175059807274902,-0.0098182390837773,-0.0011775279925353,0.01183400629083,0.0162436774393743,0.0103686574177306,0.0095774430757506,-0.0004964456565107,-0.0068940379536385,-0.0123495614016168,-0.0112787194002712,-0.0048754399754776,-0.0002595260974912,0.0049994582449194,0.0110796003573467,0.0090511009830001,0.0031241752485734,-0.0114457518504349,-0.0062812574325411,0.007572283543858,0.0051089965905981,-0.0028929497284649,-0.0075850025261875,-0.0095434554845515,0.0011988783107018,0.0064412888638754,0.0052446466133174,0.0052433739831769,0.0064261771411808,-0.0040564117287918,-0.0047136288160964,-0.0067326232571328,-0.0081318103925854,-0.0032596932479098,0.0092254890691848,0.0102202429698276,0.0083451968789943,-0.0001017926819524,-0.0073831824450361,-0.0143071491995481,-0.0050275293979683,0.0026169062948288,0.0088379539650277,0.0097231084254013,0.0010853290036643,-0.0042687072096164,0.0006598764711504,-0.0024208740384402,-0.0102233201249109,-0.0070867565198735,0.0116167157544886,0.0108326803851271,0.0044428140304878,-0.0157086983001037,-0.0090093719194234,0.0094179618613928,0.0093454531312561,0.0001556531640863,0.0016724319216076,-0.008312196772356,-0.0026642965175606,-0.0010621774804793,-0.004680858702932,0.0026941379310128,0.0031756329536034,0.0037580879100528,0.0033920355296872,0.0024369234799559,0.0071491004499145,0.0001865772553561,-0.0128535432925823,-0.0211052319366685,-0.0088876424524053,0.0120807263240641,0.0188593143326847,0.0159581644263504,0.0049756230806175,-0.0055500336139353,-0.0137231054584711,-0.0122085596396211,-0.0027002504993169,-0.0018093779501301,-0.0034374793440847,-0.0025908879067051,0.0203248245348545,0.021295738777362,0.005401176389594,-0.0098240522156523,-0.0204808284414899,-0.0110466935439641,-0.0047602309209626,0.0012356756150222,0.0026651925614363,0.0121272666464429,0.0156862958733066,0.0069840691875705,-0.0032637037942046,-0.0111788519699389,-0.0120235496831427,-0.0108289384317915,-0.002895618338711,0.0078110536350418,0.013034015342204,0.0115195849171024,0.0046559637300861,-0.0064822844942693,-0.0105209491438061,-0.0090934454598093,-0.0038466143876386,0.0007530974278002,0.0055087959956192,0.0067903569567812,0.0102462440355057,0.0048927132530538,-0.0063179109094682,-0.0078532163158553,-0.0075280159922628,-0.0079521107652932,-0.0042193571651824,0.0082220055538867,0.0127100528947468,0.0112246104541259,0.0018644259995633,-0.0039352874068095,-0.0071122235927285,-0.006338681095349,-0.01070530918563,-0.0085531280443418,0.0042764085654458,0.0125126885107418,0.012859057692516,0.0068375441249501,0.0040035176525272,-0.0079415334784548,-0.0112971899799754,-0.0128154404613578,-0.0098909953149166,0.0025355068672706,0.0146852934422202,0.0168553883573397,0.0093470294508584,-0.0026887209375126,-0.018117248330759,-0.0110772072319755,-0.002350987884479,0.0013369221532293,0.0055146124943077,0.0078933247162138,0.0083262990978854,0.0034898376288905,-0.00369075952642,-0.0093383526851138,-0.0095255033647657,-0.0037754016305073,0.0021340366563073,0.0062708938116199,0.0065888530106207,0.0021323009937188,0.0037190180696458,0.0044506374545984,-0.0019367346405464,-0.0080376285990213,-0.0109176153811147,-0.0099009518859396,-0.0003257322554432,0.0099681919426859,0.0113091472207636,0.0103340283329489,0.0052356722699071,-0.001935225959048,-0.0084491175947205,-0.0118205400709675,-0.0106709034230717,-0.0052700732497391,0.0024450688399621,0.0094733673613063,0.0128780510217243,0.0110647129190879,0.0046161010379026,-0.0038252528385479,-0.0106834965929473,-0.0130689974418084,-0.0100751192283178,-0.0031155383940505,0.0048090730146296,0.0104876189472466,0.011832573284367,0.0086018857878682,0.0023057413927929,-0.0045282175666212,-0.0093567822482561,-0.0105159402310417,-0.0077448867722221,-0.0022128306710118,0.0039393314212325,0.0083943781416398,0.0095282573745026,0.0070328453225724,0.0020198154985656,-0.0034725590519238,-0.0073565608829559,-0.008328346744228,-0.0062720206589401,-0.0021334302479766,0.0025465343619753,0.0061720497746356,0.0075530702674717,0.0062426461093499,0.0026987061982193,-0.0018215788426348,-0.0056702643444387,-0.0074093104185704,-0.0063723782168369,-0.0029476689998431,0.0015533575120456,0.0054060000605681,0.0071593314188446,0.0062104933981061,0.0030169620557475,-0.0011391963583591,-0.0047095607709391,-0.0064884483534959,-0.0060035153379953,-0.0035650566676046,-4.323574195117478e-05,0.0034545530761786,0.0058759342379646,0.0064600881374739,0.0049373619050168,0.0016663588700722,-0.0023767526687079,-0.0058364919982454,-0.0074279002802124,-0.0064432609844033,-0.003082277261487,0.0015672174547737,0.0059000160497684,0.0083543068755837,0.0079451566259701,0.0046093288993596,-0.0007089962519511,-0.0062504818594096,-0.0099140301094758,-0.0099650695696069,-0.0058125506860013,0.001435784681501,0.0089436834841285,0.0128024551645509,0.0093008629779748,-0.0034585033733208,-0.002168422314818,-0.0017477489945726,-0.0078174832611264,-0.00498095196809,-0.004721886555433,-0.0028694194839233,0.0012870113390378,0.0072673181422077,0.0097011595319409,0.0055707391280807,0.0014347972903251,-0.0006001221038661,-0.0047014700119222,-0.0077993709239133,-0.0080746549325942,-0.005277528739771,-0.0004349313415633,0.0047235695023031,0.0083847333645539,0.0092101649249999,0.0067722406898597,0.0017650302433418,-0.0041326081078891,-0.0087811545313508,-0.0103588563182398,-0.0081027946678694,-0.0026884682938935,0.0039444155896779,0.0092816928004643,0.0111898825743388,0.008780477982573,0.0028472432617517,-0.0043342444062132,-0.0098475175257068,-0.0113530303340844,-0.0081750518907753,-0.0016952555880301,0.0052334140054667,0.0096180309619438,0.0097279242509326,0.0058425037764791,-1.2083410588132054e-05,-0.0051460342069282,-0.0075065018006236,-0.006530849736542,-0.0031841408854317,0.0007227573349581,0.0034881489067574,0.0042503136926345,0.0032067000690405,0.0013179239431749,-0.0002979469606092,-0.0009721767733503,-0.0007854815278446,-0.0003933623293574,-0.0004797275204323,-0.0012007387322749,-0.002020687785446,-0.0020869645831181,,,,
0.0078694967128704,0.0012150489657631,-0.0059854526281657,-0.0107657113280742,-0.0111012713874695,-0.0068006176826537,0.0003362850356904,0.0072237722690956,0.0108298142682198,0.0095861411923038,0.004176612273222,-0.0027634237581992,-0.007952222293999,-0.0091054280417264,-0.0060321267607882,-0.0006041290562648,0.0043386563666734,0.0065060313229537,0.0052681292065804,0.0017992273737021,-0.0017508949209123,-0.0035329793093041,-0.0029751620316419,-0.000928022020687,0.0010306992182166,0.0016376213573502,0.0006779201156415,-0.0009867867307951,-0.0020402108242841,-0.0015685735706729,0.0003497569608147,0.0026505179759898,0.0038840740078553,0.003077704420694,0.0003661184346813,-0.0029898674224291,-0.005237764977255,-0.0050839754056496,-0.0024244917778868,0.0015650204754698,0.0050225976817464,0.0063250450160963,0.0048463765276269,0.0012081024363031,-0.0030292587763512,-0.0060495658670517,-0.0065441174104908,-0.0042569262925196,-0.0001034957603496,0.0041885971774806,0.0067872870385231,0.0065330572637144,0.0034565292080091,-0.0011983983273297,-0.0054699345452099,-0.0074914453385524,-0.006290034925845,-0.0022460091604185,0.0029871895159235,0.007112922126428,0.0081707340942522,0.0054792496695024,8.378396577348104e-05,-0.0055988495612265,-0.0088632630927585,-0.0080314755054584,-0.0033322326703906,0.0031264777236685,0.0083086822821573,0.0096880403762067,0.0064899238501028,0.0001212350560304,-0.0064607223802259,-0.0101558526081117,-0.0092017416378596,-0.0039899179964003,0.003143716916784,0.0089958836829526,0.0109217307596912,0.0080002701345775,0.0014572935474697,-0.0058504900869749,-0.0106944194625012,-0.0109231879773018,-0.0064305407099278,0.0008126591712774,0.0076662447955357,0.0112283931858012,0.0100864652058841,0.0048625384218082,-0.0021377364666445,-0.0079647358563082,-0.0102977025555297,-0.0084568676274741,-0.0037687616172576,0.0009081450570552,0.0024335755573045,0.008769570802402,0.015516653386685,0.0080837367161253,-0.0001329555931931,-0.0086178161967039,-0.013367121488573,-0.0125017223106103,-0.0084931116221546,0.0027857328381798,0.0107423984259755,0.0134125336302399,0.0106656080016611,0.0041887367067782,-0.0032056254329399,-0.0086973458859388,-0.0105063950720206,-0.0084247218396125,-0.0036705957976525,0.0017745107351308,0.005998547147637,0.0078111223352087,0.0070033584459699,0.0041980261636294,0.0004451132888636,-0.0031948304737097,-0.0034036069334722,-0.0071732644222596,-0.0067400396488137,-0.004514202214593,-0.0006967566877543,0.0039540692930879,0.0080256621196369,0.0097969872793269,0.0080045831178786,0.002671722764722,-0.0045242310541646,-0.0107153654559335,-0.0130634861717557,-0.0101812356515639,-0.0029931630127032,0.0054980346878883,0.0140101224120174,0.0171111054100326,0.0119203979860474,0.0004172453581029,-0.0113221106961481,-0.0166785875411641,-0.0156963752989297,-0.0087795813222341,0.0032197290602823,0.0126831037681444,0.0128155611906815,0.0116030149743028,0.0113951990573576,0.0003890571196323,-0.0129395288869816,-0.0169810891176133,-0.0161613674324116,-0.0061624549118549,0.0054493549634754,0.0133839753755595,0.0140883869150832,0.011661227530071,0.003048570880673,-0.005769459193118,-0.0087514459348462,-0.0103467355254538,-0.0072030778700219,-0.0028167453743507,-0.0019120789272234,0.0022897077624045,0.0102972619816392,0.0114896339871959,0.0090056127393236,-0.0002686941412228,-0.0043496078398742,-0.0078607604079616,-0.0113112601283092,-0.0091669831514087,-0.0025180941449305,0.0035249461978607,0.0082681812481402,0.0113607904749386,0.0096132311836557,0.0044665296373059,-0.0035789099565852,-0.0093961349571481,-0.0139864665692503,-0.0083423804015393,-0.002252132250964,0.0068571248373116,0.0129349755187895,0.0089088931044167,0.0013076234552586,-0.0053986985004851,-0.0052690936830234,-0.0004688137522318,0.0006663795818551,-0.0032424921147844,-0.0007023565953963,0.0011654954921204,-0.0037150593311577,-0.0023606845145774,0.0024499631738691,0.004124321439066,0.0104200977674563,0.0053974186601128,-0.0034092521620647,-0.0091080761735852,-0.0087305665023972,-0.006626565662923,0.002810623373367,0.0061636628290449,0.0048880649444246,-0.0021064957392089,0.0053637103697021,0.0090326814623478,2.5440859389559384e-05,-0.0084433816387716,-0.0122685361045687,-0.004464496138681,0.0049965065511387,0.0052748910581684,0.0032889146361728,-0.0012807852356468,0.0041367686979227,-0.003128086352132,-4.168654286582529e-05,0.0020949743405005,0.0004230644387231,-0.0047167286777113,-0.0026901047405801,0.0055836140940502,0.0007035436168083,-0.0034145413825309,-0.0051693596783566,-0.0003641023329842,0.0004019205485987,0.0038330206524636,0.0092122568453269,0.0068455214963867,-0.0015318482311842,-0.0077445354627432,-0.0078388370315108,-0.0082025212892353,-0.0043526577745019,0.0046823147026481,0.0094308922562841,0.0091587672592416,0.0049543502578979,0.0026021178323485,-0.0057717162099351,-0.011851277576678,-0.0124682335510358,0.00036938466205,0.0083516041839596,0.0097216918932835,0.0085031070282097,-0.0009847833945567,-0.009387328596253,-0.0056020814191213,-0.0005202056856306,-6.795692356962815e-05,-0.0008878421468958,0.005348631559419,0.0054987719174455,0.0004466848042764,-0.00409546769587,-0.0001448046866843,0.0012838346169026,-0.0028606793554571,-0.0056641015497878,-0.0045296564074341,0.0056093969371125,0.0087946952284374,0.0027196812428216,0.0006119402322901,-0.0030548226533622,-0.0048227868366858,-0.0042542945454715,0.0003352054959275,0.0002395392961444,0.0008341023413269,0.0006660358348152,0.0038288419545315,0.0059163930364689,0.0038010824394166,-0.0025724865261285,-0.0082835599811092,-0.0090129647176298,-0.0047951739048109,-9.745876409511792e-05,0.0065598741879945,0.0119049823954648,0.0117715109506158,0.0046696209657426,-0.0063919816548008,-0.0125624239169343,-0.0137505398336841,-0.0096544108875913,-0.0005723432852859,0.0095485952565465,0.0151481913435052,0.0126396202320905,0.0061733086061581,-0.0034206578918385,-0.0102428689176893,-0.0127379681278289,-0.008643573130077,-0.0023406811244177,0.0039087244818976,0.0061201725204406,0.0062340035672507,0.0045776706729825,0.0020663024241239,0.0038896759128339,-0.0019431752156967,-0.0032537197027797,-0.0046751059124774,-0.0055250994371943,-0.0050407078083136,-0.0028808738717408,0.0030537829527312,0.0041522068468457,0.0065095081687425,0.0065744561831458,0.0041646848764678,7.723565730093716e-05,-0.0042109830878246,-0.0071065022875065,-0.0075094811976625,-0.0052371851880958,-0.0010973074648485,0.0034180826392308,0.0066969493803824,0.0076028646755202,0.0058644989014975,0.0021225779012521,-0.002340106824933,-0.006035673198229,-0.0077126741505473,-0.006713615634731,-0.0032148122123013,0.0017111957950456,0.0063128151069738,0.0087042811970823,0.0076209901831348,0.0030972597098644,-0.0008036277520747,-0.0089616274081399,-0.0112537274044759,-0.0087474556370332,-0.0020392280155421,0.0062082746208386,0.0122199734351157,0.0127240189533567,0.0065083519079892,-0.0047809154480239,-0.0096036233077479,-0.0128921680625383,-0.0082247503353134,-0.0025582407716484,0.0031814090445563,0.0081348826478822,0.0145403178693592,0.0126335694138705,0.0039010095585381,-0.0071964429482773,-0.0153410901884575,-0.0167339930435758,-0.0107072373882432,8.781515530651352e-05,0.0109352528789439,0.0171561495938937,0.0161288454819494,0.0083677636024409,-0.0027721591399335,-0.0125952649919636,-0.0170852066367488,-0.0145627763960121,-0.0062920126905067,0.0041731563457382,0.0125620007714976,0.0156670000125496,0.0125718686264049,0.0048541375496568,-0.0042353002098413,-0.01117648818658,-0.0135384445136027,-0.0107757778434501,-0.0042540084793608,0.0033960460613989,0.0093020727101751,0.0113974685445299,0.0091545609849976,0.0037378395033558,-0.0025233648210123,-0.0071612916561024,-0.0086306893035879,-0.0068735064475535,-0.0031196265552158,0.0008967425863444,0.0038035820238398,0.0050605576084432,0.0048701060014697,0.0037355855683921,0.0020454087253779,-3.496237246985137e-05,-0.0023500690537211,-0.0044615872469368,-0.005590527216538,-0.0049458421521234,-0.0022845659631619,0.0016849818121604,0.0054112096620342,0.0071663161865912,0.0059486802153012,0.002110072260792,-0.002688377606093,-0.0062321278864188,-0.0068564559679702,-0.0043124430447897,7.945293207799386e-05,0.0040845995237378,0.0056917356115439,0.0041622869983876,0.0004501034514192,-0.0032684722473836,-0.0047729782065069,-0.0030857431409305,0.0008732048830448,0.0047099311269737,0.0058984699454521,0.0033132075310055,-0.0019514647355633,-0.0070279562954715,-0.0088286749387935,-0.0058615095099874,0.0007615162539923,0.0077701934132759,0.0114420415873872,0.0096280852013259,0.0029657659150052,-0.0053965435052401,-0.011413475061993,-0.012213761084828,-0.007510447662979,0.0003736199298746,0.0077920479566209,0.0115887730270928,0.0104618526371457,0.005285998746197,-0.0015609346900023,-0.007361912915739,-0.010123581093473,-0.0091513292417714,-0.0050532806058519,0.0006616217722187,0.0061253512219151,0.009596946257409,0.0098563436288808,0.0065564727275262,0.0005035433801729,-0.0063307070457186,-0.0113004579294714,-0.0120904264396823,-0.0078583840643722,0.0001026255717556,0.0086620477673214,0.0141065391628803,0.013813433645002,0.00754181240191,-0.002306950929681,-0.0116301376834468,-0.0163757184590453,-0.0143315790680666,-0.0061479918135093,0.004873653725883,0.0141461863640744,0.0177315085803209,0.0140190055569863,0.0044350706156569,-0.0071218968158593,-0.015894026294853,-0.0182490989871462,-0.0131945170860846,-0.0027796959576267,0.0087654944356483,0.0167727574378566,0.0180307264125677,0.0120717220650186,0.0013428880887714,-0.0098045390651099,-0.0168992773167558,-0.0171700338338811,-0.0106392332087159,-4.659914675134045e-05,0.0103237151780443,0.0163837652287845,0.0158361923369656,0.0090259235947651,-0.001235821189697,-0.0107916969173996,-0.015789744165146,-0.0142413133964617,-0.0068546296082856,0.0032332199716403,0.0117543819272909,0.0151124123947111,0.0119222390620348,0.0036191817306558,-0.0061390403493829,-0.0130421514924257,-0.0140156996113026,-0.0086138097916053,0.0007236817286133,0.00971951045448,0.0141925275903816,0.0120128904224141,,,,
-0.0032642406572882,-0.002283063434646,-9.605203648598224e-06,0.0024760374374444,0.0038947429960591,0.0034254810983288,0.0011805851492135,-0.0017852416087004,-0.00398980361653,-0.0043090018382582,-0.0025857609961449,0.0003007177455939,0.0029381255326635,0.0041404074290998,0.0035170625676446,0.0015586247299265,-0.0007443379401286,-0.0024618166096204,-0.0031144022695363,-0.0027205273099581,-0.0015987447353344,-0.0001526981960911,0.001230909434047,0.0022140395577825,0.0025593770181135,0.0022022856204228,0.0012671794869593,-1.9947388285119433e-06,-0.0013307032530257,-0.0024399480680852,-0.0030183146470003,-0.002741444236208,-0.0014224693463213,0.0007540147859941,0.0030960454406021,0.0045580277847503,0.0042173821350398,0.0018612811398128,-0.0016913011651595,-0.0048271339774893,-0.0059072510686031,-0.0041747921323233,-0.0002730842995852,0.0039635777945335,0.0063886518291933,0.0056622120780296,0.0020198350027403,-0.0027583419661157,-0.0062228271268629,-0.0065398206243382,-0.003484666739139,0.0014192303470678,0.0056966312353458,0.0072015201385845,0.0051819638461776,0.0005949012796373,-0.0044172661876016,-0.0075509527958454,-0.0073547880970783,-0.0038185508629675,0.0016407362756965,0.0067434295207065,0.0092469414707978,0.007871165658003,0.0029123448586462,-0.0037360524250874,-0.0092611833587171,-0.0111183976579792,-0.0082348964356499,-0.0016232793988884,0.005974337681487,0.0112958098433985,0.0120352490507642,0.0078581780793384,0.0004941352626736,-0.0070710793545464,-0.0118691007683759,-0.0121090958550696,-0.0077847807640468,-0.0005793837126549,0.006813314596734,0.01167811528239,0.012247029991587,0.0083305981535483,0.0013874846516441,-0.0060132043766779,-0.0111555708938547,-0.0121994233013689,-0.0088523101074283,-0.0024281996660091,0.004701981021939,0.0100153473204669,0.0117319219033268,0.0093795459852376,0.0038693286179928,-0.0028820734289914,-0.0086044991255658,-0.0113833487404864,-0.0102460638093402,-0.005492382832558,0.0013324084250785,0.0078636653137135,0.0116759139678172,0.0111738248432087,0.0063095820278639,-0.0012058283976367,-0.0084129236191641,-0.0122631514765643,-0.0109910517560217,-0.005040687579429,0.0029952096659773,0.0095055674667664,0.0115686867795421,0.008384413052764,0.0016647905827209,-0.0052555992496397,-0.0091330561640913,-0.008429809003362,-0.0039625984255565,0.0017188388934017,0.0057892072354202,0.0065689661754134,0.004168689166215,0.0001637015856398,-0.0033537689057673,-0.0047863401422426,-0.0036696797008883,-0.0007558434212783,0.0024127763805229,0.0042351323870189,0.0037879699312988,0.0012575154517781,-0.0021302844887795,-0.0046693309259357,-0.0049894612398025,-0.0027550972941947,0.0011084043632255,0.0048090157918381,0.0065336165475654,0.0053209957722859,0.0015130346511732,-0.0034289445924944,-0.0075982888272735,-0.006938906274704,-0.003449040784009,-0.0024024928065514,0.0043287997531451,0.0102890152241433,0.0089219827943429,0.0021323847491385,-0.0023215329934218,-0.0051828752382713,-0.0068112591193924,-0.0052459698999916,-0.0051954697195737,-0.000313069667605,0.0048084573592696,0.0081034013450332,0.0083507075929161,0.0031425035326537,-0.001654720898619,-0.0044460023200093,-0.0061558948955876,-0.0064074714138336,-0.0028764602607853,0.0012334282679452,0.0027952592996496,0.0016266235736718,0.0050337078551689,0.000813029144818,0.0057091137334895,0.0046847426013379,0.0024473888426317,-0.0082267562590094,-0.013868654761445,-0.0125579451053515,-0.0025944433220459,0.0093159628622127,0.0137656539894401,0.0123779876500266,0.0089886685913094,-0.0025373849342815,-0.0134244382774096,-0.0099384489063817,-0.0075293575919752,-0.0045276542349024,0.0002483408785171,0.0054676698267566,0.0122654979395555,0.0114681125382985,0.0016621195139945,-0.0047405615539666,-0.0068700237883153,-0.0053922794438299,-0.0056916780896291,-0.0004211617714207,7.872462465045277e-05,0.0015078897507992,0.0069016461334265,0.0038758001197158,0.0003032544978921,-0.002045709782071,0.0019541217159325,-0.0015343503860556,-0.0049762073051732,-0.0007800998097922,0.0058744052414354,-0.0041070349200624,-0.0074236943632978,-0.0003141604963528,0.0016506664634674,0.0090906780909613,0.0074584715588723,0.0032573615573547,-0.002259782254552,-0.0078319950648815,-0.0115506847827568,-0.0060846956633385,0.0042574488930078,0.0077876003771312,0.0036652784095077,0.0051794625206259,0.0031815519086151,-0.0031351646643427,-0.0015178254507025,-0.0028823731702972,-0.0025337652183076,-0.0058070067110015,-0.0044360697922671,0.0043629815749857,0.0023562901199002,0.0029385521675644,0.0076410742281768,0.0070839628984615,0.0003552917891944,-0.0055751171075822,-0.0093401838222218,-0.0111109510677268,-0.0076690638370503,0.0053002699614685,0.0122681058575074,0.0156021590383832,-0.000319281233767,-0.0048704804604208,-0.004363423521287,0.0015837823769765,-0.0047283415477081,-0.0071692797072698,-0.0021542563377216,-0.0034011066127346,0.0017471764649735,0.0071495039772125,0.011490069662184,0.0081512328291479,0.0019767910802839,-0.0093375705508311,-0.0138031052509288,-0.007543881794351,-0.0006729878351424,0.0002717102258704,0.006931385525374,0.0074275815693783,0.0060201208729062,0.0068961069780357,-0.0018362999545014,-0.0047316880681564,-0.0097660931584177,-0.0072234868508074,-0.0035161037310377,0.0012334530420035,0.004392865187613,0.0068729980787601,0.0076789625785497,0.0024381863303793,-0.0004394746254669,-0.0017007006248324,-0.0021209736124845,-0.0074529469909559,-0.0072601847816296,-0.0067972267425802,0.0003990133206363,0.0081012268884336,0.012413652254412,0.0093779453136461,0.0003788795535071,-0.0022580003246229,-0.0093945744483262,-0.0060482202057186,-0.0043525662867727,-0.0024636897019846,-0.0033694055970186,0.0005428149216036,0.0060541775072707,0.010616594687432,0.0103578695094163,0.0058541079267952,-0.0037768675828917,-0.0112505581212903,-0.0117353214572193,-0.0090587373632532,-0.0057168077400447,0.0040737056623968,0.0109341728960482,0.0130425108153822,0.0097132451375972,0.0016216187587359,-0.0072582373159239,-0.0075360058877939,-0.0050471874122826,-0.00633880699095,-0.0022337884530725,-0.0042379021358506,0.0028872245499161,0.0076582094663297,0.009086541955202,0.0071007737530682,0.0026177901237735,-0.0026774692506319,-0.0068916708273479,-0.0086003537980823,-0.0073213739879717,-0.0035986703085984,0.0012631086252729,0.0056442100522443,0.0080886072002888,0.0077391554017879,0.0046536407671842,-0.0001304494281151,-0.004900524895083,-0.007895724486608,-0.0079959715851709,-0.0051504589994059,-0.0003767594850504,0.0046100183533884,0.0079632159898901,0.0083173540688777,0.0053334645386902,7.512255803188165e-07,-0.0055521303733005,-0.0088591352141762,-0.008285985187842,-0.0039560524391072,0.002175486135466,0.0072413677359266,0.0088959625720818,0.0064636307929221,0.0011998940221221,-0.0043996592987819,-0.0078113721808777,-0.0076032489860881,-0.0039957690250775,0.0013011815387152,0.0058598432267095,0.0076053260768419,0.0057630594438487,0.0012569075508897,-0.0036894431131639,-0.0066331706889287,-0.0061699258174715,-0.0026893951321251,0.0018399817740553,0.0049865387772746,0.0052334994121695,0.0027815363708857,-0.000705906379451,-0.0032037572304397,-0.003529991079822,-0.0019078376779544,0.000377523973755,0.0018978685773254,0.0019393472437235,0.0007927799735668,-0.0006033776089714,-0.0013376438356385,-0.0010545816956576,-5.954986707756184e-05,0.0009646394133992,0.0013863741304105,0.000952629782083,-0.0001109157699677,-0.0012301883532733,-0.0017711080612967,-0.0013665536708714,-0.0001337486180427,0.0013411595307763,0.0022715535708407,0.0020762234993403,0.0007207847167257,-0.0011966309009471,-0.0026990973389993,-0.0029322690591547,-0.001655015469763,0.000576509175333,0.0026683694186537,0.0035587278591925,0.0027738616965439,0.0006655107598793,-0.001778426839929,-0.003427624484737,-0.0035492916990901,-0.002136704721959,0.0001200153949303,0.0021966505506891,0.0032409838334905,0.002951443862217,0.0016308003020868,-7.547217778447212e-05,-0.0015467804871892,-0.0024176754574921,-0.0025798206028535,-0.0020598882919509,-0.0009460848857819,0.0005652478510097,0.0020905824360409,0.0030946707297293,0.0030919523760632,0.0019112796736104,-0.0001472259383427,-0.0023702200149199,-0.0038871990051182,-0.0040162110306799,-0.0025622532611061,5.025928789421124e-05,0.0028794434663185,0.0047929242962318,0.0049174246487574,0.0030363725875503,-0.0002453362237977,-0.0036731244750309,-0.0058198577334176,-0.0056933423534131,-0.0032067060676122,0.000728743694644,0.0045569747833597,0.0067160913225361,0.0062693571089558,0.0032768075946978,-0.0012014126057361,-0.0054545423904978,-0.0077320618659412,-0.0069457666400287,-0.0032024518304307,0.0021089365037488,0.0068041173268778,0.0088154061055455,0.0071321958498746,0.0023194906797579,-0.0036525882775522,-0.0082174409490656,-0.0093214336579083,-0.0063620639687039,-0.0005344893176417,0.0056144872885113,0.0092928163270506,0.0087667726641897,0.0042392036047947,-0.0021776181165157,-0.0074499135739465,-0.0091131379753647,-0.0064938051917631,-0.0010016658794187,0.0046513470126508,0.0078410594175526,0.0072669971572949,0.0034415367751042,-0.001702297381497,-0.0057877257698842,-0.0070593755096587,-0.0050914197120974,-0.0008969261195146,0.0035621724673316,0.0062541628807286,0.005986992416212,0.0029498818297682,-0.0013820051326207,-0.0049572930892392,-0.0061303726325791,-0.0044249331708469,-0.0007133883921891,0.0032399900065589,0.0056172307587055,0.0053637449139694,0.0026319416857483,-0.0013118819842286,-0.0046537558883295,-0.0058319027883606,-0.004246815434471,-0.000576710400163,0.0034730336804708,0.0059243065849142,0.0054771206007309,0.0022166710177225,-0.0023083988050937,-0.0057719179445846,-0.0062681522609713,-0.0034113458329782,0.0013389706972995,0.0054177196034104,0.0065876673045432,0.0042111414141272,-0.000413591339506,-0.004814959588071,-0.006697595935286,-0.0051022936875595,-0.0008278104574499,0.0039971577606241,0.0069409251045551,0.0064380428806564,0.0025868402961425,-0.0028179088674581,-0.0070937329235941,-0.0079851450768086,-0.0048493617936307,0.0009188801693108,0.006504922818115,0.0090696176168297,0.0072141668603298,,,
0.0029805744530768,0.0018805478711748,0.0003518073030586,-0.0013291703491653,-0.0028966112924438,-0.0039404623526426,-0.0039135619107211,-0.002418999526571,0.0003851652919735,0.0036034813575357,0.0058792290393798,0.0060399058871457,0.0037373918337684,-0.0003028090059482,-0.004555321743067,-0.0073279834319781,-0.0074493095388617,-0.0047354056286404,-7.595252065573633e-05,0.0048801421031431,0.008317012480776,0.0089006957655986,0.0062534521065732,0.0011056895943007,-0.0048950160793787,-0.0096442301361711,-0.0112155045384157,-0.0085691868681992,-0.0021522975330713,0.0059227912050234,0.0124250444885577,0.0142839064735453,0.0101200593810941,0.001209180935875,-0.00879938471168,-0.0154492596593402,-0.0156030035957003,-0.009018542607857,0.0014690791583974,0.011265681044287,0.0161635436268196,0.0142393374791959,0.0065946477257189,-0.0033345098827279,-0.011434603636358,-0.0146636902948292,-0.0121259447416675,-0.0051632070190567,0.0033744742328008,0.0102711299300826,0.0130796301171192,0.0109238749945317,0.0047540984919821,-0.0030250516877735,-0.0094480738785735,-0.0121015184008856,-0.0100442893624694,-0.0041724303001704,0.0031339040585828,0.008964711839658,0.0110643119454625,0.008749113729129,0.0031483074017731,-0.0033451639108844,-0.0081422851140676,-0.0095229095403497,-0.0072222389819721,-0.0023652357650901,0.0030910649193631,0.0071008297448029,0.0082141618109765,0.0060677818016117,0.0015640473479969,-0.003397207677613,-0.0066618004964151,-0.0068007889068552,-0.0038496601576457,0.0006434401058691,0.0043689432022037,0.0054525246914379,0.0034574443156157,-0.0003662145217144,-0.0037388099338071,-0.0045765276884765,-0.0021441704971838,0.002459335265948,0.0067129970008516,0.0077375396814532,0.0034636067939222,-0.0065771157421176,-0.0209368244564619,-0.0118578685517417,0.0051361717503238,0.0137679001731004,0.0146063800146201,0.0098718748874685,0.0027354525454609,-0.000911082565217,-0.0125867277011222,-0.0241845125502847,-0.0105784149379817,0.0034058540926407,0.0112114205686645,0.0136300059182836,0.0107868768637633,0.0065511115954925,0.0007541851157616,-0.0051679114012301,-0.0101149065614321,-0.0118945973066535,-0.0089563889561483,-0.0060458976254422,0.0047388899047403,0.0107023250145411,0.0142020577563873,0.0116787154572738,0.0043376248646949,-0.004703617256487,-0.0116839836280096,-0.0138061731239477,-0.0104152379845262,-0.0031815059444849,0.004764903856938,0.0102744387347685,0.0114807633627907,0.008402987465664,0.0026867978606192,-0.0032738533948848,-0.0073787773531264,-0.0085851415992308,-0.0071270588012564,-0.0041722548462128,0.0013548695722586,0.0057940454264957,0.0064232649437066,0.0057996542065216,0.004426176395909,0.000461679433369,-0.0033859796795333,-0.004287356597757,-0.0046458310770864,-0.0045172208943741,-0.0016714771493434,-0.0015998141847363,0.0025226478757574,0.0053128534480561,0.007031498015859,0.0057383662781559,-0.000292973794848,-0.0050846351101506,-0.0057336263252688,-0.004527732996798,-0.0019755962679538,-0.0016291402038572,0.0002814474915228,0.0052467063514629,0.0057070241921542,0.0044260182373742,0.0027221588595603,-0.0029814963053122,-0.0038044504660549,-0.0066649256617493,-0.0051649562225515,-0.0066457891282453,0.0035189207114439,0.0140729641186824,0.0111490395439374,0.0042953144638755,-0.0057415021705857,-0.014254110990349,-0.0106889636436948,-0.0064144042964565,0.0053504354882489,0.0116094364320731,0.0149501039787272,0.0053942055172966,-0.0030826075851118,-0.0121028617574887,-0.0106466551234195,-0.0031688774604911,0.0013196746260323,0.0012111364262742,0.0027408992091081,0.0070616284468837,0.0071207018328346,0.0024134021856911,-0.0002687258460826,-0.0055330218217305,-0.0057383697948131,-0.0045019838615007,-0.0029878511383125,-0.0067672486863053,0.0004322335274682,0.012455465689021,0.0110313884942313,0.0091712496727642,0.0006294626220676,-0.010121595482482,-0.0154685111577137,-0.0094302283821515,0.0006754643279341,0.00490813612191,0.0105766561568121,0.0086017414212125,-0.0015529150823964,0.0011361914393256,0.0003043771718895,-0.0053725043463855,-0.0057243012509386,-0.0051981902257359,-0.0027012147472782,0.001194085207599,0.0034059034967982,0.0089156743527771,0.0077617873010522,0.0035888284499057,-0.003908140014157,-0.0078996854272395,-0.009556480267913,-0.0063863859716472,-0.0016885758135351,0.0056615577046226,0.0095154386186263,0.0091065178577255,0.0046060565217841,-0.0003352721892592,-0.0042815520191876,-0.0103773926681638,-0.0106905066687635,-0.0032458116426664,0.0028920705099162,0.0076385474777756,0.0086696502012207,0.0052370939439151,0.0027738637882775,-0.0040303367613688,-0.0059289947431871,-0.0067095127299396,-0.003824122991614,7.421646045375467e-05,0.0051025266690194,0.0065845905037788,0.0025595190057344,-1.7615171893678927e-05,-0.0070922185773448,-0.0080241147840994,0.001633918983138,0.0075632378399173,0.0061355973014919,0.0008736970993222,0.0022450319843881,-0.0018326733268618,-0.0069336289619889,-0.0110289713155741,-0.0048856688830461,0.0016892441195964,0.0084385030683874,0.0096511974819811,0.0066035691383132,0.003194558272057,-0.0003446153424112,-0.0047373264931403,-0.0102599928647354,-0.0075220810092328,-0.0057369188825248,-0.0037528510749967,0.0028999840578132,0.0086950691632884,0.0142824394157695,0.0123560667818317,0.0049805233977193,-0.0047482504214611,-0.0137855525142904,-0.0151565458371596,-0.0134959606400509,-0.0058381477819448,0.0043963539650202,0.0163821917988704,0.018337989848538,0.0127196159129783,0.0016650411550021,-0.007260799137752,-0.0110715434856744,-0.0131284095028895,-0.0112858347938448,-0.0044530914429804,0.0027717331225178,0.0083998838239728,0.0109953362440037,0.0099392451548411,0.0080846734675952,0.0017352316559691,-0.0046489256842027,-0.0114944935558666,-0.01227012089133,-0.0090661678108358,-0.0028722333351028,0.0041689025602431,0.0095455741979822,0.0113778682115748,0.0091529302209313,0.0038585695576733,-0.0024923900835902,-0.0076671215255888,-0.0099868916189008,-0.0088192867520764,-0.0047002481439294,0.0008890860409795,0.0060075870977666,0.0088788244671928,0.0084945753635023,0.0050094400624342,-0.00024809977555,-0.0052287343401543,-0.0079721508529505,-0.0074540392313353,-0.0040557147096902,0.0006217866564041,0.0045395373136794,0.0061936278122225,0.0052546812160901,0.0025516005319681,-0.0005214504905956,-0.002762875598864,-0.0036362799021279,-0.0032706029866252,-0.0021383121179446,-0.000716444190392,0.0006647976759353,0.0017914686257493,0.0024870029563883,0.002594727880135,0.0020311579752459,0.0008546741761174,-0.0006985542947268,-0.0022268998644673,-0.003232089482579,-0.0032611393390008,-0.0021121807074524,-2.2260571297203985e-05,0.0023008958432007,0.0039002066733278,0.0039984905179095,0.0049099210499409,-0.0003396177625738,-0.003233537320489,-0.0051647013058823,-0.0053557495538613,-0.0036487932680661,-0.0005536115631893,0.0029172676208295,0.0055469106642962,0.0063006707759199,0.0047322051423976,0.0012531413551928,-0.0029184095013899,-0.0061925576616104,-0.0072640780596609,-0.0056687179531853,-0.0019583647480164,0.0025598422034819,0.0063363404333596,0.0080840518289924,0.0071219481844855,0.0035546747752042,-0.0016701652295647,-0.0068709328803804,-0.0100334676255455,-0.0095462452445499,-0.0050469259671405,0.0020838260049592,0.0090165202575129,0.0126154297801633,0.010958614371269,0.004429098559935,-0.0042881177496169,-0.0113812823695987,-0.0136761850325974,-0.0101046352041203,-0.0021906442702573,0.0066317197536935,0.0125377898051688,0.0129939054660599,0.0078634347999709,-0.0005462994873172,-0.0085127083199058,-0.0125535602025617,-0.010986372518286,-0.0046820802477796,0.0033675862980784,0.0094896590897665,0.0110692358772473,0.0077145342595365,0.0012941716468479,-0.005098854351473,-0.0086706465774246,-0.0081692130872268,-0.0042905490715304,0.0008579845729654,0.0048916364565197,0.0062796845594121,0.0049209268844848,0.00193917958,-0.0010853603496667,-0.0029513893761854,-0.0032898440413132,-0.0024898808907163,-0.00126952475437,-0.0002099281769341,0.0004831857933887,0.0009140890676037,0.0012529231017231,0.0015314334653801,0.001622026691794,0.00136941421208,0.0007256288362166,-0.0002227003298133,-0.0013074716336172,-0.0023068325175185,-0.0029143181010677,-0.0027508153990151,-0.0015364425971183,0.0006254007056848,0.0030855019222173,0.0048237187908887,0.0049303762042589,0.0031102351652791,-0.0001063044050164,-0.0035647587048734,-0.0059749010366459,-0.0064274692428707,-0.004708921621872,-0.0013226076505358,0.0027221965985489,0.0062161540860822,0.0080440346289823,0.0074420915094925,0.0042365572526669,-0.0009578540551008,-0.0066862082383845,-0.0109039646222932,-0.0116179136719834,-0.0077950045747902,-0.0001472749392615,0.0087236156932441,0.0151324422283321,0.0158786942895913,0.0098895094685761,-0.0009255991872926,-0.0121901629096891,-0.0188920360038679,-0.0177574385126041,-0.0089724284256814,0.0037368124613632,0.014811279984379,0.0194909668000451,0.0159951383484614,0.0061811672330248,-0.0055204720255178,-0.0142319189087122,-0.0167325947074413,-0.0126155618331729,-0.0041278412524009,0.0050417310659589,0.0113709643712583,0.0128222527040767,0.0094270422832619,0.0030329875163578,-0.0035954044707041,-0.0079393075581594,-0.0086947122179179,-0.0061650924298966,-0.0019335007044679,0.0019961455627518,0.0041454113228306,0.0041360121468779,0.002657618235621,0.0009163765723939,-9.735116634179636e-05,-0.0001177723569613,0.0003674398219043,0.0005370176798394,-0.000185346549826,-0.0017450208996365,-0.0034502697445405,-0.0042970941707121,-0.0034494866069414,-0.0007027686729181,0.00322859547307,0.0067835426559277,0.0081192612683283,0.0060485183401633,0.0008843679108763,-0.0054000752813126,-0.0099717819517365,-0.010552800162985,-0.0066437836830109,0.0001699961344341,0.0069897219786817,0.0109845767315856,0.010637240810684,0.0062743478231888,-0.0002590955645509,-0.0064908594285092,-0.0102861370304081,-0.0104893818020184,-0.0071223839682242,-0.0012559893396862,0.0052813108089448,0.0103149452416565,0.0119106733012607,0.0090996365395229,0.0024788927537895,-0.0057012027156359,-0.0122014342372047,-0.0140790169325949,,,,
0.0018401726481121,0.00148573639813,0.0011181479043675,0.0008874976047811,0.0006333375489018,4.533611644715516e-05,-0.0010314355420527,-0.0023521241691155,-0.0032740466947967,-0.0030530400548708,-0.001308917200146,0.0015884946224902,0.0044757320755526,0.0058297938775307,0.0045609907575717,0.0007715107706623,-0.0040197548525752,-0.0074697014736316,-0.0076141905959627,-0.0015424032301263,0.0016670461267632,0.006638790028797,0.0082418109207459,0.0055616339208187,-7.738679430974215e-05,-0.0058001812871154,-0.0086803795095193,-0.0072488925474532,-0.0022244449897386,0.0038911911545398,0.0081074310284676,0.0084333766226543,0.0048029345199655,-0.0009873197592394,-0.0062256489689052,-0.0085871602939495,-0.0071429312795064,-0.002653569825307,0.0028795914416137,0.0071119673614075,0.0083039946227024,0.0059915632196937,0.0011699728316423,-0.0040921550333984,-0.0075162422268587,-0.0076302751749674,-0.0044613047275282,0.000475515193135,0.0049146804424287,0.006929873028386,0.0058184511750339,0.0023506153560642,-0.0017080036102746,-0.004519411703341,-0.0050419598529112,-0.0034061503897638,-0.0006702416699362,0.0018186191325227,0.0030686422169824,0.0027956454620236,0.0014078131608454,-0.0002732211869111,-0.0013942282654593,-0.0014273586484577,-0.0004227102536685,0.0009079286676564,0.001352342941192,-0.0003378674467866,-0.00472536085497,-0.0035922219741912,0.0051166189687595,0.0047583214134095,0.0015098506563779,-0.0027346071795185,-0.0028797032347254,0.0005937998444634,0.0032997171510992,0.0018519873198044,-0.003581774261992,-0.0120881866271478,-0.0001173230561757,0.0074304637662901,0.0100513675494706,0.0065202644556691,-0.0002016032411462,-0.0075273832687004,-0.008702336638695,-0.0075405202403361,-0.0034060145413555,0.0036072403791366,0.0091172142879117,0.0096590875066693,0.0058554061837924,-0.0002079488747973,-0.0057557091540268,-0.0084764318476415,-0.007496560108794,-0.0036459402022754,0.0011196571651941,0.0047723576344267,0.0061291682729436,0.0051831428888162,0.0028075104022129,0.0001349529452218,-0.001992920159376,-0.0032494478177433,-0.0037020906277165,-0.0035278024807011,-0.0028078351058014,-0.0015460282773804,0.0001421196137793,0.0043604555597537,0.0078321234523788,0.005128649018192,0.0031192833470318,-0.0025980137346603,-0.0056867327950348,-0.007050394135134,-0.0057387201570579,-0.0021267702072799,0.002117445845895,0.0048296433447888,0.0045082561863517,0.0085642745678189,0.0036654309018118,-0.0032529613134424,-0.0055880868172697,-0.0076393588149092,-0.0027009537065297,-0.0017110053530735,0.0008451046586068,0.0035995944840556,0.0061925607495955,0.0042797284388225,0.0019713866484541,-0.0040616988364523,-0.004967716724559,-0.0028422401416419,-0.0008474090533998,0.0017315994305878,0.0029062584268304,0.0016720000158293,0.0004020875229251,-0.0019995541853387,-0.0037139031904187,-0.0010379276578145,0.0011868717998297,0.001432999513394,0.0046521325921127,0.0044648940620167,0.0006108905553968,-0.0001214620020977,-0.007070932491313,-0.0104098049569406,-0.0066811938037829,0.0028893349299308,0.0081500069089288,0.0106279785201452,0.0104909425880529,0.0030832641683585,-0.0065882449340747,-0.0121601075941702,-0.0124260551262779,-0.0062805163422355,0.0022618358788314,0.0090679843297197,0.0117214768926301,0.0097313994667292,0.0006210334696643,-0.0050154542523057,-0.0097249789248368,-0.0064612706166811,-0.0032395061585324,0.0010652851187413,0.004801332919084,0.0035918735787077,0.0022418889219611,0.0031113028472287,-0.001261280865754,-0.0028189100327488,-0.0018669782542947,0.0020814819717662,-0.0018783342926118,-0.0031449220441282,0.0019841096634774,0.0042705377726463,-0.0004647716723978,-0.0066338529391991,-0.0046913823852099,0.0047456083527564,0.0088433923623749,0.0073580804317286,0.0003295246285537,-0.0091933446345737,-0.0104374390452885,-0.0055127097377448,0.0027294871447019,0.0075508361452578,0.0069049238673311,0.0069151740198125,-0.0014276015289405,-0.0057102687817333,-0.0101128492093845,-0.0049138326217146,0.0047756023211296,0.0066914749880468,0.0041336577651159,0.0027196225661663,-0.0062811679250542,-0.0037932037709308,0.0048707826747763,0.003139323192599,-0.0059344068928705,-0.0058256431598049,-0.0046829575442286,-0.0019032678464776,0.011999289250366,0.0177280025526635,0.0053643438364664,-0.00939218624338,-0.0117955260390318,-0.0112314832211061,-0.0068525456756898,-0.0049493725555539,0.0078896865110717,0.017226557101872,0.015972596266423,0.0033500123071372,-0.0056629196367818,-0.0107568811550885,-0.0095687801202531,-0.0107649381464495,-0.0024407768341288,0.0020049299053801,0.0079662252568317,0.0080485894478407,0.0076318641290308,0.0051774004691591,0.0028623703901747,-0.0056953579871269,-0.0106514186884855,-0.0064493288323469,-0.0047541212058512,-0.0042194043815586,-0.0014047395952485,0.0097072927210491,0.0125885881983803,0.006691502120627,0.0039271321621262,0.0001294909734364,-0.0072228171492497,-0.011345217382472,-0.0132210038416421,-0.0069615698628405,0.0030133496316604,0.0122533015328636,0.0149832334222134,0.0081167343951606,0.0057906256986403,-0.0029076208652074,-0.016736969531964,-0.0144221044658417,-0.0057084669597729,-0.0044321726132032,0.0065038487715223,0.017969082847034,0.0150441435818714,0.005972338375972,-0.0051091787170726,-0.014156195862273,-0.0153915581548857,-0.0063535115162969,0.0018403679601343,0.0070396968847337,0.0074258027248684,0.0123014784952883,0.0077845034692662,-0.0047621450286319,-0.0142398364273854,-0.0079937715094895,0.0016735782441606,0.0013783865933856,-0.0031706798909235,0.0019115180256032,0.0075855273755007,0.0090681851662576,0.0044145421950547,-0.0072902773735943,-0.0114340647140228,-0.0049682795059341,-0.000121468094874,0.0054203445176689,0.0076605635159733,0.0034842468282578,-0.0058571378144146,-0.0014814197411997,-0.0007387380110802,-8.203214002122967e-05,-0.0022969210739828,-0.0018049929734837,0.0047369729145586,0.0046683900868336,0.0057138650274736,-0.0008173245474077,-0.0093636838799866,-0.0098386615413301,-0.005108352933915,0.0043884883001956,0.0081769855062097,0.0076615864865028,0.00715010125213,0.0020796818260561,-0.0038838366877852,-0.0062921807696321,-0.0083626547751637,-0.006968527253715,-0.0080246872172177,-0.0014957019554674,0.0106096916319698,0.017365754882109,0.0142886849374742,0.0051070918825155,-0.0058568703361211,-0.0144233674272213,-0.0193360462028916,-0.0105419152696697,-0.0034068923068199,0.0070586178225689,0.0128122312792827,0.0158268369537998,0.0144743306825307,0.0067960639171099,-0.0065918366412134,-0.0140752786669449,-0.0212370232124137,-0.0157822019883019,-0.0030802760549615,0.0063922351537148,0.0146697092789807,0.0219282233894592,0.0191087616375756,0.0030660089141127,-0.0119416249254474,-0.0229258832661631,-0.021124939765352,-0.0084344447652767,0.0042785999871508,0.0135848169598352,0.01829622910491,0.012459545426774,0.0021525687164346,-0.0053578464824142,-0.0081955868528371,-0.0106445321708338,-0.0106468336479433,-0.0057706354247668,0.0041114607611508,0.0138765816590255,0.0131612199341587,0.0043995304005057,-0.004873333407037,-0.0080100548324399,-0.0090644964042684,-0.0049205916638557,0.0037457027454811,0.006839378487422,0.0041062313943858,-0.0015130025376095,0.0049138640545893,-0.0017069204905272,-0.0069422647637701,-0.0085890855174571,-0.0012865390462959,0.0061624620475159,0.0119857609557605,0.0117368865911967,0.0002850006123236,-0.014880677818734,-0.0246571314299036,-0.0115040338809269,0.0172421826838916,0.0288585457163908,0.0158688318550096,-0.0047147496349331,-0.0269727350303565,-0.0193226499577209,0.0075854260551999,0.0110184201719357,0.0008334131581874,0.0010301975087771,0.0034683569614925,0.0040758639438634,0.0041587233710024,-0.002640733932292,-0.005866207535859,-0.0080629234816705,-0.0067425579927254,-0.0011309204335264,0.0044886592943818,0.0090054271343142,0.01052120980917,0.0040118697727689,0.0042948745823019,-0.0072827348643261,-0.0228162004332012,-0.0096183487515112,0.0050743334792351,0.010622066034419,0.0090225250902815,0.0050445167711725,0.0008362853985898,-0.0063907569116556,-0.0007116525932354,0.0019460480289883,-0.0013825172614202,-0.0082916196972674,-0.0041175162205394,-0.000734020296783,0.0060640135622367,0.005864384120401,0.003790464506755,0.0037821960769142,-0.000759002585341,-0.0109537090634392,-0.005047977952814,0.0014789167268326,0.0068959313546628,0.0057550751752108,-0.001330399532677,-0.0088840788751955,-0.0129227160513406,0.009398136672746,0.0163107932696119,0.0062778924398245,-0.0135858070615676,-0.0147003974505875,0.0088795024366414,0.0136552006199112,0.0020876618080277,-0.0102046614674805,-0.0127372299109204,-0.0082990244243687,0.0049292272399166,0.0172233078109805,0.0153708068660996,-0.0004367310014965,-0.0062659409214901,-0.0108637138176566,-0.0079328142812044,-0.0044636164479575,-0.0032028519947612,0.0029965384875298,0.0069982634995238,0.0092056941214126,0.011672641567171,0.0014625152988912,-0.0026947698187121,-0.0097318412196965,-0.0109066049040123,-0.0079785225822636,-0.0045329241759803,0.000801790273618,0.0052194584546627,0.0125850305341197,0.0155866696732301,0.0113697306667551,0.0012405816311906,-0.010047488253438,-0.0208172509765833,-0.0187386715307873,-0.0203380026238153,-0.0028721471735955,0.0305807898785762,0.0352292488067757,0.02117524170562,0.0006760160821222,-0.0178076574237923,-0.0340458981689565,-0.0250330871416134,0.0076513029701146,0.0156286287226006,0.0063837685131131,-0.009139601790458,0.006760205139562,0.0159897814859002,0.0165607263726975,0.0105274272607249,-0.0049656441498392,-0.0277814609266664,-0.0443687755480472,-0.0152328439234561,0.0192386554654593,0.0377737859302253,0.0297687138320285,0.0047846621488007,-0.0108016266049162,-0.0112581486476462,-0.0195599839625803,-0.0064194061264029,-0.0060953010951942,-0.0130607767052428,0.0103912585792658,0.0253158352871934,0.0183014545352513,0.0065251708762954,-0.0082206930339523,-0.0132494339059087,-0.0191254762888934,-0.014284844114452,-0.0122782724995191,0.0218354578158675,0.0383238240912793,0.0232229665059203,-0.010130174533114,-0.0449044145208914,-0.0430486901499155,0.0167982200052946,0.0404181811869371,0.0271877332915677,0.0009058757756901
0.0028749642561211,0.0045876599439459,0.0045634109903379,0.0028277990454412,0.0001269250535275,-0.0024289268952141,-0.0038998913667062,-0.0039194197949142,-0.0027387775674873,-0.000939033105844,0.000932826961867,0.0025291370652774,0.0036042946998467,0.0038465335165993,0.0029024536765207,0.0006717436324675,-0.0023444629141406,-0.0049972885761381,-0.0059338201737654,-0.0043485188212043,-0.0005774204240332,0.003887612384697,0.0070374158656378,0.007307305602818,0.0043538166216698,-0.0007334747564985,-0.0058603405761123,-0.0087894993001062,-0.0080835966792039,-0.0037697848440106,0.0025473472613608,0.0082309437656906,0.0106795353930426,0.0085223735135327,0.0023946312182052,-0.0051679788505778,-0.0107976890821055,-0.0118769863096408,-0.0078231328190973,-0.0003712397884316,0.0072815551486549,0.0119635799637568,0.0118610799224325,0.0071248012495323,-0.0003565138879203,-0.0077591150147109,-0.012337257464173,-0.0123438838685569,-0.0076441924006397,0.0001472064514309,0.0081247776413257,0.0131209762875633,0.0130116745538221,0.0077343158166647,-0.0005635609045418,-0.0084401423459979,-0.0127237401428228,-0.0119120829140352,-0.0067051584622299,0.0005089605616336,0.006840748274768,0.0101198494037811,0.0096163813079201,0.0060590815357825,0.0010874359518293,-0.0035204244653358,-0.0064835198746056,-0.0072975008687678,-0.006150189404261,-0.0036330639433828,-0.000453245102578,0.0027224781169616,0.0052859427321078,0.0066656589647842,0.0063851714708617,0.0042483657174749,0.0005707842975094,-0.0037151205324434,-0.0072315270835113,-0.0086167889477361,-0.0071108448513664,-0.0029843488095548,0.0024385119119701,0.0072335896356346,0.0096296016029642,0.0087143286772911,0.0047762395154421,-0.0008334356938184,-0.0062088966896582,-0.0095454564541103,-0.0097214445626928,-0.0066414066228965,-0.0012569142623629,0.0047218864287656,0.0093286507269247,0.0109250432839881,0.0087362095243129,0.0032104096983676,-0.0039388495464924,-0.0101432465745506,-0.0128589869653335,-0.0106642434274032,-0.001582308776465,0.0043655871604527,0.0111069647418396,0.0131419766555659,0.0094995802461277,0.00174331725598,-0.0067151418850367,-0.0121691269232769,-0.0123057169388186,-0.0072192557193015,0.0007205109478378,0.008026096092869,0.0116622437178064,0.0102913070579269,0.0047087937191555,-0.0026062063575712,-0.0085616990555677,-0.010711069803032,-0.0082441405273747,-0.0023352949681212,0.0043416792193614,0.0088038362008712,0.0091546048460713,0.0054866187429616,-0.000222659402699,-0.0051984351128154,-0.0073270747430605,-0.0061373035422977,-0.0027712335812167,0.0009179453441572,0.0034624474960846,0.0043639258893841,0.0039272362315953,0.0026794095154876,0.0009447290183047,-0.0011076990926526,-0.003122146293914,-0.0043885524451132,-0.0041422319826477,-0.0021482191479637,0.0009355782775385,0.0037778020927001,0.0050659772449004,0.0042049889501859,0.0015954860408978,-0.0016052131747474,-0.0040343948723166,-0.004697714278524,-0.003358418457605,-0.0006334228102027,0.0022501122324098,0.0039903147271173,0.0038311947799612,0.001942294344143,-0.0006871714661201,-0.0027911692782089,-0.0034681304402344,-0.0025472351080654,-0.000544420438494,0.0016519764250124,0.0031408720070598,0.0032917135316184,0.0019462412543392,-0.0004677745534452,-0.0029923072360922,-0.0044499783219776,-0.0039626466508021,-0.0014517944514673,0.0021707197876591,0.005290081478489,0.0062784301223419,0.0042913110989713,-0.0002057032510972,-0.0054620410860744,-0.0042163877642788,-0.0068455535564423,-0.0058762317245737,-0.0001559173011529,0.0053922023702657,0.0085138933656719,0.0080937208333418,0.0045393181858304,-0.00054897802384,-0.0051865604404068,-0.0078491847537042,-0.0079865009026915,-0.0060767554244733,-0.003299109576802,0.0038832981684601,0.0094636573176579,0.0127789841474594,0.0087289866146823,0.0025376358253847,-0.0048129086517606,-0.0116901340094948,-0.0137589665401714,-0.0093724809196495,-0.000710881334393,0.0034852927743952,0.0100369208419371,0.0134485057957159,0.0118709915015523,0.0056155356862373,-0.0054050064999785,-0.0126799513254486,-0.0131640856766332,-0.0107685935736932,-0.0069750430065396,0.0048220452084265,0.0113170708432715,0.0156257292008841,0.0107688242592397,0.0040541615754489,-0.0062070994421827,-0.0100549922557111,-0.0091833558939279,-0.007389651802865,-0.0049973454978369,-0.0001262947350327,0.0077960255587139,0.0090713035301885,0.0051190072022486,0.0031726860053856,0.0028192311846119,-0.0020041617526903,-0.0039965294825346,-0.0062665135483824,-0.0075498761256114,-0.0043592521901363,0.0023694591904629,0.0048947819159455,0.0050589466468277,0.0031567951089935,0.0020999812053125,-0.0015803056148613,-0.0021941700831007,0.0005442965132431,0.0035843161394531,0.0007967157070989,-0.0043661975156142,-0.0071264435092295,-0.0061970555548314,-0.0016309750789053,0.0061248599754947,0.0031753232497532,0.0051748083979014,0.0044293745467545,0.0060086154317097,0.0068772765553591,-0.0034522884562054,-0.0117763152671427,-0.014663838444884,-0.0149196489454236,-0.0004310026438028,0.008731649161764,0.015057965706528,0.0188624473849737,0.0128085925769644,-0.0002160087101716,-0.0121516845476873,-0.0187335408897406,-0.0186632691270016,-0.0082797329734647,0.0034989964349519,0.013312688783709,0.017446375770333,0.0135508776822604,0.004314755413488,-0.0052645935333179,-0.0116038506196486,-0.0138757983162801,-0.0083570811638864,0.0014285782512298,0.0070118232776904,0.0068249518246878,0.0026429216685885,0.0010773763752621,0.0069119007898228,-0.0032396770523888,-0.0060703316761354,-0.0043363055598206,-0.0021880895487328,0.0022318908827102,0.0027114198957819,0.00475488262595,-0.0006892212212459,-0.0027332224180337,-0.0043662380933854,-7.300269010737435e-05,0.0038801357025166,0.0015349767783857,0.0007606934193863,-0.0011891986164177,-0.0005936039145917,-0.0012572192482577,-0.004261700505298,0.0020647046831911,0.0064861274631115,0.0034217532327075,-0.0004437140836892,-0.006562216248437,-0.0047673824711471,-0.003369839653081,-0.0013573337314056,0.00700124667916,0.0054762478048525,0.0030231709310598,-0.000611611240552,0.0004618485135488,0.0010656134361394,-0.001089190766967,-0.0087109138144447,-0.0089190529545059,-0.0024310736829939,0.0034695727054515,0.0081148806931924,0.0085668915019208,0.0082891157595574,0.0007494031600613,-0.0065618420000468,-0.0076565435229156,-0.0071724602526343,-0.0042287129980598,-0.0027774575556968,0.0042510161866794,0.0094465147345301,0.0068068152734495,0.0037830976050573,-0.0028981238240653,-0.0043041393386452,-0.0043276453962481,-0.0029843757861107,-0.001084530713477,0.0004456218573844,0.0011940148728566,0.0014050835959807,0.0015837240110326,0.0019150494559183,0.0019858663644523,0.0010556364654566,-0.001296065837421,-0.0045960766398683,-4.700551889899765e-05,-0.0008554120956823,-0.0014078995864243,-0.0023263692425422,0.0019260114391204,0.0045978383994834,0.0046175098292864,0.0021242025810848,-0.0016072732595536,-0.0047044213757639,-0.0055392037826669,-0.0035556339243095,0.000341321780758,0.0041520461547296,0.005824650541533,0.0044224677384469,0.0007001776055277,-0.0032999094916038,-0.0054081025539802,-0.0045504502805166,-0.0013149181184159,0.0024450538479779,0.0046954582250266,0.0043379341808421,0.0017321847821908,-0.0016112905737116,-0.0039230237132008,-0.0041139750822426,-0.0022603579780464,0.000563696258416,0.002930126627147,0.0037808308987982,0.0028664448688313,0.0007486537260223,-0.0015533264672903,-0.0030607860658823,-0.0032507175176885,-0.0022179040779163,0.0019512981446887,0.0009824898109508,0.0017672531824832,0.0016294909920009,0.0008355503952164,-0.0001360594736945,-0.0008552803745347,-0.001085856024314,-0.0008172722748218,-0.0002403417768121,0.0003137612557637,0.0005018833572459,0.0001644723803359,-0.0005162227332948,-0.0010504778406023,-0.0009176326088416,6.223616359559256e-05,0.0015177832928716,0.0026502568302035,0.0026531039856645,0.0011995693780235,-0.0012811697363753,-0.0037130995344819,-0.0048439598701252,-0.003868963184777,-0.0009107072638395,0.0029028461167292,0.0058614770949052,0.0064579224537613,0.0041761945571694,-0.0001423939096064,-0.0046102786742219,-0.0071837508132871,-0.0066883359464003,-0.0034161944878445,0.0035322896696043,0.0045590891329861,0.0056315905854333,0.004056108798882,0.0009775260707977,-0.0018970581517246,-0.0033013151813129,-0.0029993171455484,-0.001671933874674,-0.0002962162234136,0.0004926656116319,0.000648954280729,0.0005130476089535,0.000423891117556,0.000482351517706,0.0005971651745223,0.0006734463949814,0.0007091903700912,0.0007117871692753,0.0005647999762343,4.1963621515066746e-05,-0.000978446699053,-0.002259216828038,-0.0031572565541318,-0.0029086304971211,-0.001124756989867,0.0018071018806563,0.0047167593471926,0.0061269775728973,0.0050128644685731,0.001443684704854,-0.0032791847179528,-0.0071281075710519,-0.0082845735735717,-0.0060326424292096,-0.0011429598983398,0.0044470323695379,0.0084770671384139,0.0093093518972421,0.0065629004379949,0.0012250176122332,-0.004740708626139,-0.0091133129336736,-0.0102094525078088,-0.0074949000213744,-0.0018118570421209,0.0048593051339805,0.0100454400686756,0.0116527535935518,0.0087943969430799,0.0022616390028766,-0.0056126968919497,-0.0117476317427611,-0.0135188658049509,-0.0098953077040812,-0.0020033944666833,0.0071739992411559,0.013911784068562,0.0152703030530322,0.0104096662365384,0.0010772080162719,-0.0090285504062712,-0.0157913546902721,-0.0164220744919563,-0.0106125215184982,-0.0006034045544936,0.009790733331928,0.0167074345841722,0.0201335946006928,0.0121140184837474,0.0016083052949377,-0.0113025477968292,-0.0239596815901095,-0.0342866672536891,-0.0040848391410692,0.0159709446842799,0.0207976001719235,0.0180827474764932,0.010368573259829,0.0015502061333661,-0.0055655175852934,-0.0145464989093614,-0.0168005826854583,-0.0094977086178147,-0.0011424209981654,0.0062292931900093,0.0105644912136794,0.0107748791728233,0.0072554476667719,0.0017073275953448,-0.0035943628349994,-0.0067335410112522,-0.0068941122633803,-0.0046039388883395,-0.0013624807010677,0.0011987356349264,0.0021990917749792,0.0019110043375289,0.0013971875283236,0.0016097216949124,,,
0.0010499757850546,0.0020484617398091,0.0022836073708056,0.0017002599492383,0.0004939361036995,-0.0009121196989215,-0.0019703047185304,-0.0022292051938375,-0.0015934056077666,-0.0004271313257169,0.0006477360846541,0.0011672992876859,0.0011339789721093,0.0009400829738461,0.0009531151970952,0.00112397837737,0.0009842128204092,7.593893528767797e-05,-0.0015235051422809,-0.0030435265660154,-0.0034356894239855,-0.0021147866901455,0.0005173220928766,0.0031871427115092,0.0044705947998571,0.0036516329131499,0.0011577809204883,-0.0016978250286859,-0.0034876816719295,-0.0034643609389311,-0.0019059956777113,0.0001498459965828,0.0015699292945809,0.0017686493719023,0.0009702332746937,-2.78508214804452e-05,-0.0004241538870516,3.970065587186328e-05,0.0009045294435637,0.0013235394209936,0.0006989400880704,-0.0008087650390572,-0.0022897639872729,-0.0026655733064604,-0.0014727252920729,0.0007139502291507,0.0025718760091041,0.0028895830968942,0.0014148845748277,-0.0009159023370381,-0.0025564623915957,-0.0023634937565395,-0.0003750048960151,0.0021572772970322,0.0035151588548874,0.0025920636382858,-0.0003528109499536,-0.0037405804194763,-0.0055331515130853,-0.0044307759387643,-0.0006985023284326,0.0038922974185849,0.0069942899219546,0.0069448692105853,0.0036365351754243,-0.0014530408335998,-0.0060217759757424,-0.0080502809396318,-0.0067052721163049,-0.0026485420840609,0.0023388438751697,0.0061975686707525,0.0074814988555213,0.0058950619826295,0.0022814822019804,-0.0018505722454393,-0.0049837889633909,-0.0061394277486304,-0.0051395724620762,-0.0025549863498253,0.0005874605405302,0.0032101299131921,0.0045550291310932,0.0043894750250426,0.0029871494349138,0.0009286215185731,-0.0011548149822572,-0.0027672095712539,-0.0036093149925193,-0.0035515173140034,-0.0026001512585308,-0.0009128162381866,0.0011560319529992,0.0030590124580345,0.0041767870918699,0.0040390790327962,0.002544710274907,6.581272570005562e-05,-0.0026238149504797,-0.0045842427724758,-0.0050420255753506,-0.0037114538534453,-0.0009680521165857,0.0022374315529632,0.004727039752221,0.0055626160002311,0.0044157333357788,0.0016822131102477,-0.0016800416763971,-0.004496279109319,-0.0057724663533531,-0.0050320080757704,-0.0024972992245017,0.0009631522682084,0.0041379112984787,0.0059183966548306,0.0056896729371,0.0035097541227303,5.471825713651711e-05,-0.003595479774369,-0.0062510264079837,-0.0069383690036831,-0.0052128713338649,-0.0013839128868735,0.0034434814692782,0.0075911956641719,0.0093114983524089,0.0074784948445537,0.0022390098592291,-0.0047131944567502,-0.010548856438915,-0.0124405428717683,-0.0090026467383478,-0.0012502740546909,0.0076012640876441,0.0135525600856702,0.0162412826452737,0.0078252997996082,-0.0018294175141493,-0.0111579067243887,-0.0161440677799044,-0.0145546046735904,-0.0069013247991147,0.0037498921001202,0.0130231265453992,0.0170381743592403,0.0140528976355891,0.0052312506107196,-0.0058543548551174,-0.0123449120541014,-0.0161525961354967,-0.014412811705292,-0.0070855573134428,0.0071398629608893,0.015191859984788,0.0182354865128409,0.0123587496795883,1.7746275405110883e-05,-0.0053721683779019,-0.0133311330254637,-0.0152746704400473,-0.0096504732209383,-0.0016569070423363,0.0057416110260273,0.0098356808186379,0.0122223775992888,0.0086022301645159,0.002985656493241,-0.0029195631852555,-0.007502108554947,-0.0101814469819483,-0.0081853748695999,-0.0043711745264464,0.0004164701858639,0.0049475085093806,0.0078862903131105,0.008236561660812,0.0082792275833534,0.0012385663642108,-0.0039562973854511,-0.0082313938773683,-0.0105158125279807,-0.0057377469381074,-0.0018650967099668,0.0023341461251155,0.0085450334075476,0.0088920585600167,0.0056158760609093,0.001229463660223,-0.0020439038882269,-0.0065155869017536,-0.0067901420374994,-0.0043961752521989,-0.0030085097970949,0.0028548631563274,0.0032213963181894,0.0040875426277107,0.0036403888388607,0.0053576932327684,0.0016257566102274,-0.0011759287056988,-0.0052429150915562,-0.0076589302054696,-0.0065510039042091,-0.0046358386267167,0.0025042765373546,0.0084762640928305,0.0123378950387885,0.0101267400549514,0.0003136451956502,-0.0093742221830527,-0.0129147249123135,-0.0103906531604062,-0.006236715140455,0.0051948708024398,0.0111717112784146,0.0136018767188138,0.0089826077132377,-0.0042127461535961,-0.0084847169869048,-0.0077918590178556,-0.0069092550400624,-0.0033935370717177,0.0005863534465136,0.0067334197299594,0.0073314109732375,0.0059970931578037,0.0033609439080259,-0.0012416231449819,-0.0114712490137989,-0.0094603833860586,-0.00035678174596,0.0056811628763916,0.0086387906831537,0.0017282118754365,-0.0015768120526643,-0.0017791564025174,-0.0042799503029557,0.000739579835595,-0.0031792569597654,0.0025781344222632,0.0046681582190749,0.0013049200850029,2.404845130028133e-06,-0.0065199846760297,0.0001761760773432,0.0015947973825295,0.0017514786959161,-0.0001517751752388,-0.001456575392508,-0.0024418293221867,-7.425377235562922e-05,0.0049351892139162,0.0009162235677195,0.0005693347453326,-0.0001839768290943,-0.0007655150310983,-0.0032749290642552,-0.0029699029843312,-0.0026799845858111,0.0017136403774942,0.0042672302196626,0.0064157544905338,1.9863644089700533e-05,-0.0021761735846818,-0.0035610361806026,0.0008800232836739,-0.0016996918023875,-0.0031875470278636,-0.0021724752369281,0.0019511472222992,0.0053702916370618,0.0024803145537849,0.0014030123939668,-0.0014717255865611,-0.0025887766720384,-0.001726143387244,-0.0018847701216242,-0.0019704567850478,0.0017679620753324,0.0040032968888468,0.0002651895911813,0.0009317801951467,-0.0004627407987795,-0.0033086291886311,-0.0003425728945965,0.0005532446792096,0.0008369686740765,0.0020107100864,0.0036967114530928,-0.0034231217807319,-0.0035816555686475,-0.0028966598045662,-0.0002469379225591,-0.0004143784955959,0.0027608930369886,0.0054117152153205,0.0064937274071324,0.001039029632858,-0.0050619773669791,-0.0076160017711195,-0.0075720227821822,-0.001667987052102,0.0017660200640972,0.0071598405895143,0.0089792342657328,0.0045326040780504,-0.0013777199168499,-0.0041460044691259,-0.0040660191803407,-0.0044548088663766,-0.0053812702288819,-0.005168452848306,0.0030262819263022,0.0107991309396675,0.0083384667938536,0.0046091342556091,-0.0017839485885914,-0.0063209296431838,-0.0071194499865928,-0.0080173590160902,-0.0042028700107066,0.0031640142306094,0.009911652281983,0.0098525250112488,0.0042724734500619,-0.0021261281496915,-0.0084301408699537,-0.0080328745558884,-0.0014466953079626,0.0008669693638191,0.0017709225884882,0.0004544182795963,0.0051975318594125,0.0047079547364219,0.0029128049630247,-0.0028299383059736,-0.0048326141672902,-0.0044395701991699,-0.0032470157109821,-0.0009401689441975,0.0019781447083718,0.0043952784470901,0.005131208037618,0.0035802938306474,0.0001479033718171,-0.0037785750862013,-0.0039064860908877,-0.0039765445017969,-0.0040570833957494,-0.0006064236026771,0.0018339355408066,0.0067341707981113,0.0091895155343578,0.0032271406161632,-0.0045215051948653,-0.0077619992500552,-0.0060604544683933,-0.0027858015231188,0.0004207415863856,0.004523044156502,0.0063258931868324,0.0041418202573339,-0.0006259616964472,-0.0042713999240735,-0.0035176588010207,-0.0012691322787701,0.0011991648152757,0.0024672006092068,0.0018252376262124,-0.000279144010319,-0.0024965990097207,-0.0033733325964547,-0.0021973173805347,0.0005975051428359,0.0036553888300443,0.0053734810060939,0.0046674227707338,0.0015084740083991,-0.0029573982337786,-0.0067808090280167,-0.0080073983533409,-0.0056358242985217,-0.0002809739632944,0.0058864899292882,0.0100247157841954,0.0099619850376653,0.0053309900099864,-0.0020967911649905,-0.0090894203979962,-0.0123837644873139,-0.010239340698064,-0.0033762894006255,0.0052209458143336,0.0116293474936976,0.0128465001067504,0.0082673023322653,1.922071551471096e-05,-0.0080418220076476,-0.012196388964039,-0.0106600327820896,-0.0044070834927695,0.0033923409927747,0.0090134579535536,0.0100287212817388,0.0064096471185292,0.0003432161071961,-0.0050610962493908,-0.0074051944071433,-0.0060789314191425,-0.0022782199986266,0.0018814622720997,0.0045228449471626,0.0047875074393004,0.0029650573566696,0.0001155588043057,-0.0024886881679958,-0.0038428071486447,-0.0034998939174972,-0.0016592357751788,0.000932105421917,0.0032406456415679,0.0043149812193853,0.0036467135000373,0.0013773802057516,-0.0017366625526832,-0.0045660052656948,-0.0059491790099595,-0.0050645762108889,-0.001811875439131,0.0029004139587218,0.0072178230780335,0.0089827581779921,0.0068329064368394,0.0011694576956367,-0.0057137166027724,-0.0106111518893289,-0.0110365972808089,-0.00656522150863,0.0009049418749065,0.008098574953168,0.0119384973896418,0.0108979209919466,0.0055285095298223,-0.0019283303177825,-0.0085315362528735,-0.0117763991822175,-0.0104864172300246,-0.0052057291644734,0.0020188204324885,0.008404744937753,0.0114927639509683,0.0101017774817948,0.0048008810802993,-0.0022971513244908,-0.008354656812654,-0.0109430464725011,-0.0090578976088533,-0.0035772273759692,0.0030949182160859,0.0080981224288425,0.0094151246742442,0.0067591902193793,0.0016059304494343,-0.0036173549015214,-0.0067257166269329,-0.006723384898515,-0.004067319057096,-0.0002280028659139,0.0031090715443852,0.0047551315480134,0.0043587498023926,0.0023529116932827,-0.0003362140654868,-0.0026452504818201,-0.0037044163985869,-0.003118202522085,-0.0011452590807996,0.0013355866224764,0.0031568855194107,0.0034088678860961,0.0019315046756032,-0.0005501362165631,-0.0027715330409907,-0.0035938183422637,-0.0026171241635996,-0.0003818437061921,0.0019580962914745,0.0032786102199242,0.0030528385292525,0.0015373395832437,-0.0004627418849257,-0.0020520198981783,-0.0026562626501145,-0.0022025704689693,-0.0010407926108637,0.0002903854086258,0.0013058468729227,0.0017249051746944,0.0015133150285082,0.0008515355222222,6.080563210104307e-05,-0.0005109380450913,-0.0006415825936583,-0.0003726196508681,-2.5647053608935145e-05,-2.1549163911449165e-05,-0.0005641454594071,-0.0014002778287305,-0.0018802613769944,-0.0013540423505537,0.0003303459462829,0.002581277112651,0.0042783716823863,0.0043488473852373,0.0023779899279412,,,,
0.0161424790770387,0.0155816032325428,0.0091469074941806,-0.0006803034918255,-0.0101447888400679,-0.0155980789926059,-0.0149267355383156,-0.0084608468378913,0.0011038477973892,0.0098414215956008,0.0143128098065113,0.0130250639591522,0.0069131825707267,-0.0013017802039643,-0.0084032416400174,-0.0119197141775666,-0.0108636385737618,-0.0058990330926229,0.0009587842233231,0.0070400337349858,0.0100129532178347,0.0088585262932877,0.0043362394035301,-0.0013958683687435,-0.0058609229717652,-0.0074407631915497,-0.0059942472513068,-0.0026480499294401,0.0009839613838255,0.003609848454717,0.0046589984321635,0.0041973503619807,0.0026137062625329,0.0003922232134569,-0.0019190064078943,-0.0036759942603867,-0.0042353508863901,-0.0032272739900228,-0.0008548666102863,0.0020210926062021,0.0041611923809811,0.0045124494404499,0.0027717271705047,-0.0003765330499863,-0.0010296640102779,-0.0052572306383511,-0.0048127819395803,-0.002442744009898,0.0007983293335952,0.0035564057356477,0.004758873484208,0.0040104368449327,0.0016766777214421,-0.0013013536225601,-0.0037559062390098,-0.0047156412700504,-0.0037994930957618,-0.001416099873532,0.0013892951851507,0.0059092445924675,0.0038115272569982,0.0024919413029563,0.0001137544581816,-0.0022161651609798,-0.0034876502896445,-0.0032430803639721,-0.0017393511673711,0.0002252476300559,0.0017302168877517,0.0022023808543885,0.0016877945186794,0.0007527534419409,5.997982955388241e-05,-9.9085190496997e-05,2.011608802967668e-05,-0.0001290227624609,-0.0008749236474305,-0.0019482356866379,-0.0025512235482703,-0.0018866189475042,0.0001921807243392,0.0028807625985368,0.0047445094004989,0.0045214208796731,0.0019270912069676,-0.0020500273174522,-0.0055693180985413,-0.0068458655419697,-0.0050473318239213,-0.000729819732463,0.0043611680668891,0.0080024602772715,0.0084197413244269,0.0050858990736784,-0.0009156121524007,-0.0071669275212762,-0.0108338949606012,-0.0099319249243139,-0.0043850458288021,0.0036984614718786,0.0107978261894679,0.0135387816066816,0.0103280937453237,0.0022442721335488,-0.0073087546340432,-0.0140764129064672,-0.0148888467298678,-0.0091573047878224,0.0007732018435741,0.0106040519815162,0.0159816678594972,0.0144702569723355,0.0066911779634918,-0.0039252347580407,-0.0126928894535437,-0.01581409955562,-0.0120979856838708,-0.00343716540628,0.006164445830151,0.0125141331458442,0.0131528143630165,0.0083512607261978,0.0007443410244487,-0.0061279736266281,-0.0095598339098627,-0.0087932646208344,-0.0050066204898247,-0.0003474158251977,0.0032983326765891,0.0050664224855295,0.0051026237110615,0.0040256826512744,0.0023764867579984,0.000421239948526,-0.0016803897740736,-0.0036060060514261,-0.0047905077553765,-0.0046398423523141,-0.0029053433207947,4.2108480340264245e-05,0.0032447043227095,0.0055132348730522,0.0059249690278465,0.0042133585605369,0.0008887771429922,-0.0029211473040767,-0.0058367827773443,-0.0067047114608953,-0.0050639399640356,-0.001414364741695,0.002889708572188,0.0061480400250079,0.0070280188169966,0.0051452062121217,0.0012244651705964,-0.0032202460578219,-0.004020696059961,-0.0075168776834468,-0.0059318477950436,-0.0023374673694535,0.0021048192206397,0.0059465637410016,0.007807291961189,0.0068129652701491,0.0030251502458955,-0.0023642427342132,-0.0073066674051365,-0.009670993996896,-0.0082287016967438,-0.0033427393175198,0.0055538858592101,0.0107216756558108,0.0098045273154086,0.0069538662784238,0.0008104654338124,-0.0059864726720614,-0.0105037565801487,-0.0107960403754325,-0.0066973892177313,0.0001574288366502,0.0070305652103882,0.0111742744653356,0.0108737090170065,0.0060506651613037,-0.0017571014162605,-0.0074848733772353,-0.0110671692292937,-0.0080832378247935,-0.0056017583286325,2.398458507351897e-05,0.0064511372331255,0.0110833376281561,0.009551891467613,0.0036021825611808,-0.0003386161721207,-0.0044727173377178,-0.0102952210797444,-0.0111897412255449,-0.0024434637129757,0.0008871489400293,0.0048046849990495,0.0087894008698431,0.0093106159821022,0.0054447023067728,-0.0018168901107169,-0.0093040075132771,-0.0073413860596848,-0.0053117954095057,-0.0023551546630839,-0.0011479058397686,0.0054374599231493,0.0110209648704987,0.0085196644413883,0.0016034441816956,-0.0055980433600509,-0.0095699893218497,-0.0096320737392404,-0.0029851529554648,0.0025949610501424,0.006891240585873,0.0089034696263208,0.0077292590779737,0.0003648852553777,-0.0060973844609897,-0.0083535363374974,-0.0072242608564506,-0.0037001886149859,0.0005550780260788,0.0045806563526569,0.00835026358648,0.0094288713787404,0.0059893979087733,-0.0015558046329548,-0.0089854366547957,-0.0136910268902801,-0.0110899696860149,0.0014752089581367,0.0059363396095326,0.0099800397552727,0.0120614086314599,0.0047110855965223,-0.0006614624741195,-0.0042322420173868,-0.0090107303696534,-0.0120791137783674,-0.0049938256980603,0.000193963522503,0.0057408211230793,0.0097888191299766,0.006946896560651,0.0053207923498601,0.0018969777604885,-0.0035223224823445,-0.0088421031810607,-0.0079504232334925,-0.0056421350118424,-0.0027718528629275,0.0015581464495502,0.0076022817576999,0.0111500550820009,0.0062174809704244,0.0003161829321834,-0.000248981970917,-0.0047827927027423,-0.0107133775204311,-0.009806654411935,-0.0028256217893499,0.0025566309534867,0.0077761431715498,0.0105707185401301,0.0086808686679583,0.0017875119534821,-0.0068148775358241,-0.006928162456247,-0.0076201904815407,-0.0048162807690726,-0.0008577010839594,0.0048396547975984,0.006254455761987,0.0055510543144124,0.0028636796440422,-0.0012102695471379,-0.0037849564265953,-0.0014309002069179,-0.0027951124594006,-0.0045616977251756,-0.0015010247628007,0.0032296538906554,0.0032754761286524,0.0017915782761242,0.004986364012025,0.0004622879308823,-0.0030357953766941,-0.0034933477571371,-0.0039659251907398,-0.0010341971683116,-0.0002836316469519,0.0011253661878885,0.0056797914366169,0.0045379243190798,0.0025410306216936,-0.0037023767528767,-0.0070165038038135,-0.0032356073723371,-0.0016961691460454,0.0039011203046933,0.0015917148293226,0.0018595847125493,0.0042470534803543,0.0024910451976945,-0.0013200744477412,-0.0054113477816805,-0.0041630861939749,-0.0028471195588953,0.002173897150471,0.0016865049691821,0.0039615915281316,0.0034784328945761,0.0006887683222896,-0.0032030460554786,-0.0018702799496156,-0.0014852958857015,-0.0016680446411034,-0.0001077861571377,0.0025503254715965,0.0005219653782722,0.0002099252995535,0.0011175934721527,0.0006858691337001,-0.0006121634743016,0.0005104508802116,-0.0026835576029444,-0.0022652510985957,-0.0007915043813725,0.0011902546788558,0.0027933694509873,0.0031521170731697,0.0018885315614772,-0.000575417650242,-0.0031017111948705,-0.0043544485336217,-0.0035124406377457,-0.0007753206922232,0.0026504318162351,0.0051077341109102,0.00530408023625,0.0029695405029792,-0.0009646213153816,-0.0047506774180965,-0.0066017545275697,-0.0055205439663518,-0.0018097567688119,0.002982165663709,0.0066951384468093,0.007528077712703,0.0049191733074055,-9.891920020943548e-05,-0.0052915210561013,-0.0082282596985424,-0.0074451659585141,-0.0031894879965982,0.0026472842548863,0.0073967693632844,0.0088535972548525,0.006284344339704,0.0007575704890514,-0.0053082112096327,-0.0091665889615842,-0.0089372664977977,-0.0045025079871192,0.0023083153418402,0.008420220886269,0.0108777300696776,0.0082798210782768,0.0015738208225722,-0.0062514875687993,-0.0115051350347768,-0.0115579406775068,-0.0061693479318229,0.0023037598872608,0.0099634176886205,0.013212095749306,0.0104857394145716,0.00301040354561,-0.0057987832453445,-0.0119766195436416,-0.0128481318684385,-0.0081839941924566,-0.0001848898332682,0.0076083517735228,0.011919737204904,0.0111291644324783,0.0058619557919037,-0.0014340433429582,-0.0076702945849816,-0.010464255022245,-0.0090301044903357,-0.0042934686759635,0.0016767497210331,0.0065683130824144,0.0086842217940261,0.007487985595391,0.0036859643176904,-0.0011518563293238,-0.0052502313526032,-0.0072699973436569,-0.0066874299481593,-0.0038438735010806,0.0002471202231244,0.0042171055186074,0.0067216467204411,0.0068463166517288,0.0044554623765036,0.0003325200382426,-0.0040227327933926,-0.0069362801663,-0.0072424831072233,-0.00478879531397,-0.0005063084041868,0.0039841935552415,0.0070213693181661,0.0075085074305331,0.0052649904035399,0.0010627929343548,-0.0036264244170236,-0.0071141521244725,-0.0080892521551992,-0.0061217627815207,-0.0018590657166669,0.0031914419542351,0.0072132521460333,0.0087401965449817,0.0071724779464001,0.0029789133277115,-0.0024579485317822,-0.0072822228499808,-0.0097489640447259,-0.0087958374369097,-0.0044634131561745,0.0019635925665587,0.0082141693106202,0.011738647981776,0.0107319250523993,0.0050912475776269,-0.0032108331401037,-0.0107115920491366,-0.0139231221390042,-0.0110553358392906,-0.0030899802758698,0.0064757399266331,0.0132177784890477,0.0139491708247936,0.0083297005278405,-0.0009471476259301,-0.0094996277606083,-0.0134228987201402,-0.011142238311654,-0.004032390699688,0.0044232464622183,0.0103964405338381,0.0114623003500887,0.0075268438936921,0.0006339238265446,-0.0061061940332348,-0.0099004969802439,-0.009371505713428,-0.0049773255322083,0.001318346377906,0.0069069880828794,0.0095562842647341,0.008227341119325,0.0034347080129871,-0.0029466163308846,-0.0058787776321426,-0.0106579949961721,-0.0087997899798434,-0.003417467472443,0.0034969067230225,0.0092705637486075,0.0115268633453932,0.0091313692619313,0.0027571545830784,-0.0052030658795751,-0.0114618524493129,-0.0131788723785175,-0.0092870536056287,-0.0011559712968536,0.0078286807240661,0.013690655413039,0.0136899606154779,0.0076800522319604,-0.0017165230607136,-0.0102775346383931,-0.0141712240515839,-0.0117809436836236,-0.0044284934752105,0.0043651305059703,0.0106588234222498,0.0119540209514178,0.0082032550784577,0.0015519532815559,-0.0049046339267146,-0.0086065314773271,-0.008515392782366,-0.0052547959257224,-0.0005415508626986,0.0036748093564904,0.0059588587567242,0.0057974857155845,0.0036240654246626,0.0005229793644039,-0.0022518015261308,-0.0037607171023022,-0.0036857045852723,-0.0023613199772828,-0.000548066307541,,,,
-0.0054649479208399,-0.0151844077395286,-0.018724687267211,-0.0144380987186407,-0.004028049629108,0.0082490250921982,0.0173871999537995,0.0196404925727857,0.0139827177255089,0.0025293625877301,-0.0102219971023226,-0.019106422392821,-0.0203738829820983,-0.0133172234901857,-0.000697040082099,0.0123252262728655,0.0203498372557141,0.0200501634879847,0.0115926945449868,-0.0014573117501011,-0.0136785102991856,-0.0200983725692324,-0.0182689814703571,-0.0092285544808744,0.0030552357621712,0.0134864085168692,0.0180418168866473,0.0153625622883133,0.0070701431857989,-0.003195873377435,-0.0114298726337663,-0.014811523076327,-0.0125804900460315,-0.006054533574841,0.0020604170749029,0.0087453156606046,0.01174987508975,0.0103307888627946,0.0054093323278881,-0.0008931896763024,-0.0061537317856231,-0.0086116379027274,-0.0077920463452804,-0.0045302499578593,-0.0004262121531228,0.0029569952865449,0.0047229356196301,0.0048130321443572,0.0062181531365519,0.0019923876862263,-3.4641413274274736e-05,-0.0021578189574367,-0.004037885028902,-0.0051138157191109,-0.0047965390743233,-0.0028359788398467,0.0003786939473349,0.0038151144301568,0.0061521481001912,0.0063436455896734,0.0041190024269452,0.0001769806099991,-0.0040266780800405,-0.0068273296732532,-0.0070306712865943,-0.0044471964677182,-3.144999481317985e-05,0.0044723459005396,0.0072439113382004,0.0071423760652683,0.0041705998910983,-0.000530704250816,-0.005123546262442,-0.0077594975894799,-0.0072771763760816,-0.0036936742976184,0.0016895583294283,0.0066762591952681,0.0090161021901237,0.0074211054518525,0.002294294212689,-0.0042689318564958,-0.0093344532704257,-0.0104890588841564,-0.0045378784465644,-0.0004216725892134,0.0064220941414188,0.010462099180209,0.0099591950469627,0.0051501477028744,-0.001954562251782,-0.0084425886536314,-0.0116504164615532,-0.0101900021632458,-0.0045134852937417,0.0032081349782189,0.0098991733918162,0.0128014127587543,0.0106130415866806,0.0040679082808213,-0.0042985527968792,-0.0111307706679595,-0.0136136397411226,-0.0106611458256838,-0.0034122011697633,0.00521403311825,0.0117336017558958,0.0135552176466318,0.0100392991204388,0.0027087647446859,-0.005448807484327,-0.0112494765294753,-0.0125862342723817,-0.0091810342018198,-0.0025577036653484,0.0046745475638774,0.0098756638450703,0.0113298361234807,0.0087584014037832,0.0032680267170942,-0.0031523254826938,-0.0083390957613397,-0.0106264375188395,-0.00932169275261,-0.0048894569073842,0.0036819345662273,0.0067965579699138,0.0099151470894732,0.0093208115797678,0.0051450327820573,-0.0011088734371874,-0.0070627928370427,-0.0103429409025167,-0.0095551204397432,-0.0049442683299116,0.0016182399191043,0.0073922965304883,0.009965520715434,0.0083335229540134,0.0033423059076047,-0.0027242977471605,-0.0072102707106134,-0.008291001661629,-0.0057520162148853,-0.0010034475469033,0.0036462913963068,0.0061018157558668,0.0054520936254502,0.0023417358628331,-0.0014329234140974,-0.0038937324543501,-0.0039130072048684,-0.0017626559042167,0.0011118442467939,0.0029556279264074,0.0027084958879925,0.0005804267915731,0.0003701141764387,-0.0038616291534112,-0.0037018437361081,-0.0017938276535689,0.0008810429784704,0.0030887382158111,0.0039390563875251,0.0032046190198834,0.0012818604595171,-0.001075661048537,-0.003063617301595,-0.0040618426573125,-0.0037776052921502,-0.0022984472904676,-4.225556342897283e-05,0.0023822872487392,0.0043348981972078,0.0052475074514341,0.0046803553579478,0.0024264030086268,-0.0012684832198013,-0.0054688846728276,-0.0085653550110645,-0.0087840454953171,-0.0051307831578584,0.0017032518231981,0.0091424844393417,0.0136348865707551,0.0124073135033923,0.0051631355188948,-0.0053319282802698,-0.0143010278901229,-0.0172468319221463,-0.0123199769824706,-0.0014658737338374,0.0103451082175184,0.0174694228113618,0.0163287011147244,0.0071545734304286,-0.0035904844013724,-0.0101646111132254,-0.0149005362356903,-0.0135911707212032,-0.0056611008723629,0.0039720149041073,0.0127330301353815,0.0147506824700926,0.0098028133731852,0.0007508266826115,-0.007872917520743,-0.012026257348402,-0.0100806503079007,-0.0035354886564866,0.0038919602129892,0.008335871652975,0.0078566376039921,0.0033499424433938,-0.002180241197731,-0.0054869417571721,-0.0049549729905526,-0.001406665669073,0.0025798774132694,0.004373003521034,0.0029340859799609,-0.0006189723914926,-0.0038461062042894,-0.0046122354201994,-0.0024159156808232,0.0013966016095317,0.0045584219792454,0.0052647404504151,0.0031485620099754,-0.0006360192664493,-0.0041270034155337,-0.0055822129232232,-0.004302593770231,-0.0009243856473581,0.0029026137134459,0.0053050106180643,0.0050979411928799,0.0023803274623679,-0.0015031255683118,-0.0046273841518334,-0.005438758590951,-0.0035143540352846,0.0002282732804044,0.0039561104699941,0.0057855566955629,0.0047008121621171,0.0010969450216724,-0.0033358449219198,-0.0063729735935578,-0.0063329144919636,-0.0029694635884075,0.0022729235701069,0.0068355216347385,0.0082677250776695,0.0055425707178137,-0.0002473235769796,-0.0063014457224577,-0.0095239027132541,-0.0081862862495776,-0.0028681517148185,0.0038737537125046,0.0088647997173647,0.0098753552793833,0.0065652465988874,0.0004651797789945,-0.0058141983602098,-0.0096872727154216,-0.0095781838977742,-0.0054963182820747,0.0009527365543179,0.0071480856375214,0.0104756593717221,0.0094351191086862,0.0043573177856755,-0.0026485857195311,-0.0085721544192733,-0.0108371468468943,-0.0084680983771884,-0.0025298358749395,0.0043637470564724,0.0092370668542915,0.0100824200404726,0.0067113375151876,0.0007417410381446,-0.0052245337156722,-0.0087794813530463,-0.0086708330750391,-0.0051755831788989,0.0001602080922242,0.0052112528620811,0.0080873519896721,0.0077838341102798,0.0044783714520103,-0.0005721355087089,-0.0054612001243984,-0.0082675663535689,-0.0077549178049982,-0.0039357147050041,0.0017673133151269,0.0069641484853098,0.0092842833615634,0.0075038307046952,0.0022319939827498,-0.0042592207902077,-0.0090348764128978,-0.0098528482324756,-0.0062185568476257,0.0003598829544989,0.0070239607368539,0.0108118268499123,0.0099388539034389,0.0045768599139914,-0.0031581578977022,-0.0099943457651844,-0.0128045667942391,-0.0099794837213859,-0.0023267505349149,0.0070034031928222,0.0137421010968808,0.014477117187419,0.0084499661743688,-0.0018372369852176,-0.0116710995443366,-0.0163856126039621,-0.0136683007954441,-0.0047023409342306,0.0064221590684636,0.0146731965807786,0.0164068391750944,0.0109614678047989,0.0008458426932986,-0.0094732398497594,-0.0155747675148357,-0.014975823669245,-0.0081115259547234,0.0019682992537454,0.0109893981885291,0.0152798466872422,0.0132433128620942,0.0059032017615173,-0.0036293658986494,-0.0114799219998225,-0.0145705101543605,-0.0118070232176449,-0.0044479924637059,0.0044711680520515,0.0114067337549817,0.0137274635659417,0.0106950090646565,0.0036411917923643,-0.0046422957718201,-0.0109892003482613,-0.0130157012834955,-0.0099932446316859,-0.0031515499967164,0.0047626810595247,0.0105908927954359,0.0120949818102943,0.0088810349417103,0.0024628331783714,-0.0045070816637073,-0.0093870144862605,-0.0105327775119109,-0.0077842624137984,-0.0023841348805412,0.0035646932476022,0.007896681087207,0.0091572385977818,0.0070733416059778,0.0025698308565023,-0.0026278125680979,-0.0066285992644882,-0.008035926863933,-0.0064327204978504,-0.0025288031464133,0.0021085135776697,0.0056717875038461,0.0068453934215919,0.0053344552412146,0.0019445055474351,-0.0018243028908635,-0.0044669551961237,-0.0051123829925316,-0.003815634858598,-0.0013946331494038,0.0010589803032076,0.0027025473721109,0.0032188459950056,0.0027543721210147,0.0016601463478156,0.0002746568320515,-0.0011168598991571,-0.0022118257662262,-0.0026774655828111,-0.0022843394668249,-0.001096924107685,0.0004665958555852,0.001807558190739,0.0024556336918509,0.0022890347431683,0.0015115732373673,0.000436965103168,-0.0007120586389126,-0.0018137523588943,-0.0026889642954664,-0.0029827582370467,-0.0022812506764544,-0.0004426625562669,0.0021039342272645,0.0043702404608561,0.0052125700835235,0.003933247588083,0.0007318463395716,-0.0032652136121502,-0.0064283960950304,-0.0073013519354668,-0.0052350005914876,-0.0007333901994518,0.0046220392710644,0.0086827264816302,0.0095561965605808,0.0064677963289068,0.0002817067147297,-0.006644516470924,-0.0113366785845929,-0.0115048596906273,-0.0066867851477059,0.0013492324897061,0.0092260312571352,0.0134110175652528,0.0118638435235212,0.0050714141364332,-0.0040830720833842,-0.0115904242908717,-0.0116441112970915,-0.0106862991441271,-0.0028960127501656,0.0056566378307654,0.0112194974827455,0.0115645533919249,0.006917738288633,-0.0002841359607169,-0.0066505507816267,-0.0094623947424564,-0.0078695522896972,-0.0031142134426822,0.0022596003790537,0.0057479241041027,0.0060763713641367,0.0036619730832012,0.0001805490961531,-0.0024596007839082,-0.0031455049130986,-0.0020328972525276,-0.0002561695401611,0.0008837887415483,0.0007316735409199,-0.0003909680354512,-0.0014947508716794,-0.0016248835266666,0.0020001108008588,0.001279763231242,0.0025853438301031,0.0024717614102192,0.0007697951333623,-0.001788196530254,-0.003917233594679,-0.0044145687443851,-0.0027991295762226,0.0003543896273108,0.003601187545012,0.0053115723002091,0.0045424870434012,0.0016100883205943,-0.0020150355422173,-0.0044928344031347,-0.0046483084949299,-0.0026254471966351,0.0002615932509789,0.0023864605095129,0.0028085287056932,0.001757013446517,0.0003179029162967,-0.0004113223954731,-9.421537316734054e-05,0.0006691283513417,0.0008628917312806,-0.0001087891739588,-0.0018736192840945,-0.0032460044365198,-0.0030224954898597,-0.0008936371909687,0.0021828013184488,0.0044740472370814,0.0045531984306647,0.0022451925259259,-0.0012153308379133,-0.0039237489212194,-0.0044514161247793,-0.0026679632147579,0.0002495399570023,0.0025857834232806,0.0031270533637155,0.0018254769242616,-0.0002880978152947,-0.0018275663365252,-0.001913911397146,-0.0006418933024131,0.0010831531562949,0.0021601488471728,0.0019343515711665,0.0005019105007571,-0.0014166668944303,-0.0028750629967283,-0.0031344935936042,-0.0019644180991692,,,,
-0.0003435629662111,0.0001462696979401,-3.253755020732749e-05,-0.0011490461299709,-0.0025826746015864,-0.003158237304457,-0.0019695523596602,0.0008722913400084,0.0041110121634755,0.0059714048773998,0.0051769342696285,0.0017516932405042,-0.0028692102075608,-0.0065076869899076,-0.0073520219495014,-0.0049190138083556,-0.0003330617616576,0.0042536599496324,0.0067819345214285,0.0063034359235162,0.0033317964968583,-0.0005940486247,-0.0037746258354238,-0.0051078239016164,-0.0043996424846223,-0.0022270021301632,0.0004311833525905,0.0025763139919721,0.0034873646074695,0.0029263245861338,0.0012332058377097,-0.0007667204600062,-0.0021001463589015,-0.002132376487132,-0.0009371725814943,0.0007168162595463,0.0017979836306652,0.001608285119263,0.0001901317107722,-0.0016723925710325,-0.0028514996142768,-0.0024904622113706,-0.0005390674219906,0.0021081168263403,0.0040278768490627,0.0040626412685709,0.0020263004924129,-0.0011350305525033,-0.0038441528311958,-0.0047509954285631,-0.0034408903585015,-0.0006136336993517,0.0023173903719195,0.0039550735012876,0.0036003741596529,0.001566261711065,-0.0010173557580067,-0.0028101435587137,-0.0029637144549291,0.0009417802635841,0.0004379555085458,0.0017061230578462,0.0013713709424329,-0.0004312910415762,-0.002578358897296,-0.0035613884788193,-0.0023777668525684,0.0007622800476539,0.0043621234849975,0.0063413930116106,0.005197035677694,0.0009807069546306,-0.0045045247857536,-0.0084833070754505,-0.0086259528277831,-0.0043837176174447,0.0025096099755552,0.008738739827048,0.0110442422383842,0.0079758524101255,0.0007984849535195,-0.0070187533104573,-0.0115416157260949,-0.0104333909286942,-0.0042047377611509,0.0040476775123914,0.0102509063191017,0.0114138168765314,0.0070610093358585,-0.0006179663961031,-0.0078914926913466,-0.0112926042312943,-0.0092531495644168,-0.0028150489636483,0.0049021214086992,0.0102175608690533,0.010656330909115,0.0061049999787282,-0.0012006573149872,-0.0078158325511359,-0.0107514636213023,-0.0088344558509693,-0.0031347090960766,0.0036806099629877,0.008673373336936,0.0099357465230234,0.0072483090789984,0.0019119564449127,-0.0039672073301283,-0.0082936210293366,-0.0096050189995566,-0.0074379207436791,-0.0024601530554879,0.0036561252595749,0.0086874163325896,0.0106155441756004,0.0084655721482311,0.0028354290848763,-0.0042272509747434,-0.0100323011560175,-0.0123664786786105,-0.007883473258795,-2.0559673181438494e-05,0.0043283189187827,0.0096980896837265,0.0091678467974405,0.0071768749212572,0.0022626001175569,-0.0034955362233727,-0.0078955778328061,-0.0094346380833624,-0.0077351576448099,-0.0035336963999424,0.0016507387302772,0.0060310177064499,0.0130056854326816,0.0095805239671129,0.0031242136069897,-0.0025222220026036,-0.0078024630507884,-0.0106164385270658,-0.0097780127876321,-0.0056138971483441,0.0026232708568703,0.0098515779345684,0.0115128611299391,0.0088315482794412,0.0046879116656257,-0.004110688640873,-0.0077138339463436,-0.010887043538573,-0.0077152543908373,-0.0059026659531906,9.755463616153068e-06,0.0100418463765493,0.0123300062863727,0.0104771178660034,0.0026416911074759,-0.0017610689828343,-0.0069376176701656,-0.0145465021345213,-0.0110013199180876,-0.0042431744253247,0.0054877524263125,0.0114924954175187,0.0125891619094198,0.0097375392291726,-0.000595630607294,-0.0070781633074675,-0.0100455823116796,-0.0115366779518503,-0.0070544883893849,-7.301898275248895e-05,0.0095837735350988,0.0133922279172339,0.0104583765701701,0.0028367515540119,-0.0056069048668775,-0.0110602598647001,-0.0114573630724847,-0.0072436237033062,0.0015464561009131,0.0065888713590828,0.0102114527936146,0.0117659133285314,0.0026428637203677,-0.0026411485520716,-0.0062766858874299,-0.0088309928467783,-0.0098259032248577,-0.0053007892245013,0.0030502259476414,0.0060190569136375,0.0090460894254776,0.0112014898369461,0.0055176942371468,0.0004866779486876,-0.0067945084931547,-0.0121722259943835,-0.0142661470078805,-0.0082940495106643,0.0022485387949679,0.0100328259869633,0.0148901440117062,0.0146214690440707,0.0068287432143817,-0.0063339312202262,-0.0114663598328165,-0.0146903299346249,-0.0114855096860887,-0.0004486474305116,0.0033383893290923,0.0101817122737707,0.0096786933301888,0.0085420740176353,0.0033071588259702,-0.0003767363386814,-0.0069289859025751,-0.0096975084029753,-0.0110001725150187,-0.0043286685866902,0.001293850268064,0.0067930524296185,0.0108085661543599,0.0098585335547327,0.0012535708534856,-0.0023608743871829,-0.0066316323860754,-0.0067536694919181,-0.0058425251007975,-0.00354103319525,0.0011804724627398,0.007776552324539,0.0085832070133366,0.0023605707687693,-0.0028158483608886,-0.004427642559051,-0.0020027473697443,-0.0014587100733993,-0.0030707250489384,0.003267927905982,0.0061266473205013,-0.0005098163550293,-0.0015031334346918,-0.0002089486891066,-0.0048868510764014,-0.005057001199364,0.0016014243317583,0.0044618540399234,0.0073733980259981,0.0045459958733689,-0.0019604071793036,-0.0047842182438503,-0.0030598688910906,-0.0035675153516536,-0.0060417309290757,-0.0008668841927043,0.0040172234402944,0.008106508351947,0.0037012663702536,0.0032812217783696,-9.4143378413342e-05,-0.0006911098715559,-0.0026902773407952,-0.0086106102618036,-0.0092627987517301,-0.0053076516883821,0.0079597760363029,0.0110948369612538,0.0095251015268542,0.0034866496987762,-0.0019792041779847,-0.0061501806808255,-0.0082978738562856,-0.0080561602472859,-0.0009741386869768,0.0042066263036035,0.0028585139196175,0.0052607589121682,0.0058319583049207,0.0031147884947763,-0.0007356637773908,-0.0061245868408919,-0.0066672394563253,-0.0042892679706489,0.0001145020154211,0.0028254928997555,0.0046413904272761,0.0043822827219012,0.0017875960880571,-0.0022537957389967,-0.0009913222478774,-0.0021348040173096,-0.0019907715348334,-0.0006230941865123,-0.0025517862265656,0.0020510376498014,0.0011276008768468,0.0012582618938749,0.003255204565738,0.0016886214371722,-0.0012056110108179,-0.0016385534930517,-0.0017847816894446,-0.0025445000559231,-0.0002858290804779,-0.0008912102917984,3.2230922265785464e-05,0.0024101241997184,0.0015992120608656,0.0022728869427328,0.001578648189433,-0.000869221500793,0.0024386713759076,-0.0020932062094217,-0.0056608694193778,-0.0044096043060857,-0.0023454999488694,0.0001596996202704,0.0038283949074406,0.0066717256399962,0.0067571296396703,0.0033795138236457,9.269312619196946e-05,-0.0059329166921491,-0.0102192699475497,-0.0088860268356318,-0.0020900644674222,0.0036378812389884,0.0085226086206534,0.0080425049047917,0.0063801257719616,0.0018438725290941,-0.0034941535948962,-0.0072693707163014,-0.0079077965999891,-0.0052998615148717,-0.0007613710569096,0.0036638087980302,0.0061753192487648,0.0059723337135199,0.003469614920595,-4.257397079850847e-05,-0.0030529738376977,-0.0044664015747696,-0.0039657676902031,-0.0020069957141572,0.0004757663400663,0.00247928781834,0.0032854186553402,0.0026675176932415,0.0009319230800689,-0.001192352712571,-0.0027988290668033,-0.0031427108689317,-0.0019740639671416,0.000287236103293,0.0026652580470115,0.0040330201642504,0.0036359404764511,0.0014692383571255,-0.0016786508043145,-0.0045214482850114,-0.0057699123898431,-0.0046516861971765,-0.0012987017343882,0.0031521864907076,0.0068738107808133,0.0080679897324581,0.0058357110993847,0.0007597886545964,-0.0051790084303288,-0.0094048596299572,-0.009915193059654,-0.0062385748969979,0.0002900030910992,0.0070568806919113,0.0112437108121193,0.0109848157823543,0.0061605481823637,-0.0014630113156595,-0.0088308880518772,-0.0127838890178989,-0.0114283276759719,-0.0051011548394294,0.0036026229385182,0.0108832442583884,0.013450897886331,0.0100895544406633,0.0022871152229854,-0.0064117599167966,-0.0120517281837124,-0.0121295978211994,-0.0067633230777803,0.0014086113348747,0.0085365888236383,0.0114141330103894,0.0089571686852103,0.0026042868385406,-0.0045004556452477,-0.0090738036378311,-0.0092136536511887,-0.0051713982616077,0.0009174836719585,0.0061454524129141,0.00822147242869,0.0064688673319965,0.001985426370432,-0.003031805773106,-0.0063729314880284,-0.0067541342064981,-0.0042383639871338,-7.353024597847886e-05,0.0039002785148867,0.0060284020450335,0.0055159066062897,0.0027250407899915,-0.0010399010217553,-0.0041536312890684,-0.0053870593474284,-0.0043855187418203,-0.0017263697363307,0.0014126295575668,0.0037866616340672,0.0045760588116571,0.0036410595701413,0.0014722295605496,-0.0010815055344086,-0.0031462277631682,-0.0040838912894193,-0.0036318833310068,-0.0019389799136064,0.0004741827126277,0.0028292900430565,0.0042947094058549,0.0042630990575239,0.0026156105785801,-0.0001579066307558,-0.003074715713297,-0.0049961520417212,-0.0050677052041302,-0.0030979479237534,0.0002792123564066,0.0037650158327006,0.0058818326204859,0.0056272638179698,0.0029941617372195,-0.0009474612001433,-0.0045075372475299,-0.0061646670721869,-0.0052730501991045,-0.0023187305552192,0.001378334901599,0.0043124245040799,0.0054315474688118,0.0044830302904437,0.0019920978684189,-0.0010213365438961,-0.0034363363005145,-0.0044207852500551,-0.0037225936502834,-0.0017573483625014,0.0005769892264016,0.0023103152603927,0.0028528883190509,0.0022548078883511,0.0011173581792458,0.0001882740628521,-0.000128776629754,-3.557591431431576e-05,-0.0001646666912875,-0.0010348666127276,-0.0024944981304724,-0.0036042579227178,-0.0031698619633844,-0.0006566943510002,0.0031554341873841,0.0063512625283362,0.0069241569851602,0.0040638996267593,-0.0011822146782876,-0.0063566607962299,-0.0088869700291092,-0.0074415934900156,-0.0025931205361405,0.0034934999698989,0.0081038625291071,0.0092085910759566,0.0063420641667885,0.0007763179827948,-0.0050588120330862,-0.00865165041066,-0.0085127775792177,-0.004817874397641,0.000706844273381,0.0080892057169864,0.007705647590929,0.006206987338901,0.0019034899964217,-0.0031206743681116,-0.0065169529315987,-0.0067880156821953,-0.0039637792904074,0.0004692763346288,0.0043362631637699,0.0058515056572731,0.0044690375781191,0.0010924923093627,-0.0024435054842643,-0.0043488418589882,-0.0038122778685765,-0.0014065985573245,0.0012705816830816,0.0025718483940014,0.0019183021661579,0.0004819694092161,0.0010096753892739,,,
