-0.0005040430021353,0.0020370067327167,0.0034480302309931,0.0032243623738549,0.0016573470820242,-0.0004500063452905,-0.0022446053214033,-0.0031760694207339,-0.003080237933398,-0.0020508177569807,-0.0003017259710637,0.0018257478637058,0.0037591124604636,0.0047064013440019,0.0039449571743784,0.0013012956285055,-0.0024975498246642,-0.0059254185527021,-0.007279762499275,-0.0055524180745806,-0.0010803254424536,0.0044173326582597,0.0085125863469814,0.0091846126809637,0.0058484455087062,-0.0002489447186712,-0.0065232186136434,-0.010222386290625,-0.009683769164168,-0.0050683775861974,0.001726906553139,0.0078816989783524,0.0108223757459208,0.0092893774700825,0.0038859005629956,-0.0031350818161302,-0.0088005210800269,-0.0106988754816218,-0.0080500634139463,-0.00205835734342,0.0046329960664524,0.0091337608378903,0.0095869349349528,0.0059528425121318,-3.974702978554061e-05,-0.0057228463882097,-0.0086940481421479,-0.0078376254035728,-0.0037190080957153,0.0017688533539447,0.0062813591855879,0.0080002198546241,0.0063170975309141,0.0020036448926633,-0.0031370754348399,-0.0069774668763906,-0.0078829389066499,-0.0053724131532551,-0.000384378364597,0.005001671724594,0.0083703806021924,0.0080460188010095,0.003969599359623,-0.0021168543456966,-0.0073975219699766,-0.0093405415781724,-0.0069840658781922,-0.0014319555434109,0.0047146875924964,0.0086520024793557,0.0086854492416639,0.0049253394602537,-0.0008734255157824,-0.0061489755628874,-0.0086397890726553,-0.0073241934911186,-0.0028426199181324,0.0027755033712637,0.0070018034620203,0.0079558551822437,0.0052848391080895,0.0003338208834051,-0.0045085012949348,-0.0069851111486672,-0.0060760884769239,-0.0024554949232987,0.00194421077403,0.0050045808872436,0.005501610499551,0.003582332755569,0.0004470100794501,-0.0024351544725489,-0.0040284064449138,-0.0040045984420052,-0.0026227639068486,-0.0004653752325881,0.0017733261491541,0.0034253152062098,0.0039804905633181,0.0032316209193316,0.001366433849685,-0.0010693609904411,-0.0033376344130362,-0.004722763967526,-0.0047135208765843,-0.0031290461078505,-0.0002096634599824,0.0033311027608942,0.0063620788873969,0.0075935929311309,0.0060635744469812,0.0017108709007571,-0.0042640628088886,-0.0095726942448594,-0.0116652139251412,-0.0089587758230764,-0.001878433014519,0.0069426585120817,0.0136245446374263,0.0148523978327154,0.009638169175621,9.59757782737347e-06,-0.0098601811498368,-0.0156601401136148,-0.0149861901574806,-0.0083415187874025,0.001317512130921,0.0100722478372585,0.0147107773224354,0.0138360689875011,0.0081149515423969,-0.0002139384584041,-0.0082382155850241,-0.0133192190910801,-0.0138351994878633,-0.009602732626225,-0.0019415546284753,0.0066386044546948,0.0131328711106188,0.015021694523079,0.0112688964348245,0.0029331678178396,-0.0044992524069323,-0.0146779607367393,-0.0169479624999248,-0.0126949706364111,-0.003411311298804,0.0072825274409263,0.0150531617441366,0.0166570267877209,0.0113584494502224,0.0038108619089592,-0.0068469537254269,-0.0162912580479229,-0.0168273056143939,-0.0109295398254549,-0.0011656753908591,0.0084348224941529,0.014099899526393,0.0138585035930127,0.0107127288359293,0.0021559801108218,-0.0086189380251194,-0.0140445750253159,-0.0154331744019616,-0.0056836621633986,0.0012859984733526,0.0058069770015786,0.0103812044564387,0.0112246296398463,0.0080550217711856,0.0024756074005843,-0.0081562274085711,-0.0111213183815633,-0.0095204196654383,-0.0053300805312104,-0.0003511432025341,0.0043201287876037,0.0053360918999355,0.0103000485403819,0.0125503449241027,0.0025139550179886,-0.0064001928321556,-0.01363609211153,-0.0151473234625894,-0.0043939876953318,0.0037297588096569,0.0075844177841752,0.0130641361953283,0.0080668603873342,0.0052740387154145,-0.0014937032165738,-0.0118999262716349,-0.0135474193185653,-0.0061544397108642,-0.0021607959124622,0.0042942574544368,0.0077666287339836,0.0080879126874593,0.0127669194692928,0.005897918919852,-0.0019495660439824,-0.0115521264988511,-0.020806707091031,-0.0126077053150227,-0.0008491158198951,0.0024082794712993,0.022841730516206,0.0247633398617044,0.0105974922149703,-0.0047032361832326,-0.0243752440523231,-0.0255526381954701,-0.0040611077165507,0.0035922368360747,0.0083869591684341,0.0127208713015842,0.0032848675741888,0.0039052119357273,0.0125265926038606,0.0003447214798233,-0.0104636762789311,-0.0118204464605335,-0.0157765620141213,-0.0121050007553395,0.0106781532254976,0.0158334111266101,0.0110205924963948,0.0077388887355706,0.0041581093823998,-0.0032193796536916,-0.0080362917239126,-0.0150890267757782,-0.0204527116493918,0.0012320722016888,0.0204322313919261,0.0084248935795148,0.0110926244521092,0.0064214800337046,-0.0110818993490467,-0.0089516358188713,-0.0103823179107219,-0.0081442526814461,0.004882630163595,0.012236601881553,0.0131506714897287,0.0049807898393631,-0.0020464607792784,-0.0199510207056011,-0.0135174281739939,0.0042483738699445,0.0015469552564504,0.0069136083680187,0.0138367270484041,0.0119379145847487,0.001813964730455,-0.0098821880236324,-0.0233238970409017,-0.0046537496301094,-0.0001604243044889,-0.0036369495289887,0.0110081763244145,0.0166029186091136,0.0099139732858736,0.0018075395383459,-0.0037840442066681,-0.0219923312662237,-0.0061384933325386,0.0014763983802077,0.000864094650105,0.0123423042734837,-0.0008715605833842,-0.0045928391792197,0.0031307636695248,-0.0045863940362582,0.0051555464286747,0.0039134334013953,-0.0013124251077033,0.0084296818473999,0.0027774612598146,-0.003547970170708,-0.0163119515749157,-0.0236267435558513,-0.0125198718490974,0.0149511795259438,0.0287056594489582,0.031355582612283,0.0168838616033321,-0.0049721877347028,-0.0362579281142362,-0.03276735328,-0.0192757075356862,-0.0038609550074912,0.0078767700192697,0.030757105845016,0.033831548991514,0.0236598001053581,0.0046644598670169,-0.0186241421187099,-0.0444288198885554,-0.0337703550256882,-0.0042637302036503,0.0092539232042551,0.0159928351370296,0.0310177605596641,0.0278208203571781,0.0073104262101307,-0.0134424990512025,-0.0243591544421375,-0.0228642212734696,-0.0126423437880835,-0.0008628155837566,0.0092835464973887,0.0122060361851106,0.0175183868720456,0.0183705519362063,-0.0016168744154294,-0.0151091204053282,-0.0168753206261953,-0.0035385549122689,0.0010525885564427,-0.0011195560568811,0.0003040751248002,0.0075556906728179,0.0005891196257423,-0.0052822919204942,0.010042604488759,0.0134080276725696,0.0046207295001792,-0.0124202760924642,-0.0162122427833904,-0.0074972843326475,-0.004422417822146,-0.0049428067373178,0.0100646118973959,0.0282995105891798,0.0184486542630945,-0.0040101445594236,-0.022212062115476,-0.018455298890291,-0.010668886400776,-0.0002872974115019,0.0074416885504428,0.013933479617921,0.0152420055293762,0.0076559528693372,-0.0016734871474899,-0.0140738189257997,-0.0143306429416952,-0.0098655875765976,0.0014575083481603,0.0057709700642222,0.0114138023926707,0.009282417410439,0.0045769956695534,0.0005515874873049,-0.0069691333981376,-0.0142253966663092,-0.0070146014542242,-0.0003976760330045,0.0049082599931257,0.0075116391432561,0.0097665431096581,0.0021657525835902,-0.000106591745683,-0.0051965792732605,-0.008244446522537,-0.0071703728435643,-0.0003203650864771,0.0030769174341403,0.0097771352362008,0.005092751913838,0.0021761255085358,-0.003568303157803,-0.0071841992356414,-0.0068867979586951,-0.005087550251273,0.0053119275286917,0.0114104657265627,0.0070784537818044,0.002515885473244,-0.0033844112426042,-0.0095583381245301,-0.0117345592390242,-0.0062550912616748,0.0018298227442119,0.0078229060171848,0.0163735106070101,0.0128834843268096,0.0027016869953806,-0.0129903787073186,-0.0146443851673481,-0.0130045581268867,-0.0062240781207211,0.0036690513843592,0.0123393495272928,0.015165612588039,0.0112216975186467,0.00293292113687,-0.0067006285167321,-0.0132575089060835,-0.015480372882944,-0.0091477191196155,0.0020973208445375,0.0101513416707504,0.0136975523414262,0.0104273973234102,0.004755179963913,-0.0034182806288537,-0.0110403864046476,-0.012699140914047,-0.0072989366583383,0.0014625260937118,0.0060795662379099,0.0080682549866306,0.0080785272673676,0.003893067382965,-0.0021658429534308,-0.0069486198650997,-0.0080384703992039,-0.0049345729275512,0.0006474971880482,0.0055047235110777,0.0064529722180547,0.0045034950781915,0.0031673085728714,-0.0036976693826098,-0.0068435201904904,-0.0085500803147084,-0.0062013475689891,0.0042560061501305,0.0108702905551795,0.0095970139492855,0.0060821654411793,-0.0028323087112595,-0.0078787182712711,-0.0114980165573888,-0.0084283970724905,-0.001311149662995,0.0064479462816657,0.007505813402032,0.0105704171294557,0.0073975584641431,0.0002094042351095,-0.0070503638884802,-0.0107743585103836,-0.009409436271246,-0.0040210168119644,0.0025135624911028,0.0071557368009092,0.0082298362599788,0.0060005978252957,0.0021214294277358,-0.0015404511741121,-0.0038990461247765,-0.0049075249569509,-0.005084808509527,-0.0023067464853949,-0.001457420069816,0.0003375347627898,0.0031511974297185,0.0038147681325786,0.0059760476907828,0.0057392804264525,0.0025522243697493,-0.0026918685100089,-0.0077746272762528,-0.0100934537330712,-0.0080231073994514,-0.0019586863339189,0.0056105759803366,0.0111604136432585,0.0118647767015533,0.0071198676920571,-0.0009986837536007,-0.0086810653749006,-0.0122907299147685,-0.0102162631669953,-0.0036524232125376,0.0040985289576535,0.0093791629307049,0.0100030016060179,0.0061984011505289,0.0002506787573892,-0.0048571424363567,-0.006996942423382,-0.0058032471004126,-0.0025369920104592,0.0008689511482609,0.0029287693561089,0.0032381263093383,0.0023614966305112,0.0011991048145815,0.0003390016240486,-0.0001835738580263,-0.0006500359147077,-0.0012295263617374,-0.0017416761484404,-0.0017910654836608,-0.0011290594796299,7.951783330969046e-05,0.0013083275459394,0.0019909952383155,0.0018581034188564,0.0010570946806982,1.3132031966848076e-05,-0.0008342720258927,-0.0012408120599948,-0.0012114877671273,-0.0009122076743075,-0.000529085647132,-0.0001687359120593,0.0001610082628881,0.0005062179571067,0.0008929809113358,0.0012566009062828,,,,
0.0065150144005168,0.0039971678437151,0.0006513612196054,-0.0025287726586462,-0.0048058356234273,-0.0057526430053258,-0.0052291801630937,-0.0033611114868553,-0.0005354869408846,0.0026146126159792,0.0052791832566714,0.0066328245385699,0.0060899412696221,0.0035754990940505,-0.0003337472064568,-0.0045142883729876,-0.0076353322458684,-0.0085947558094691,-0.0068882496921556,-0.0028062120907615,0.005065906211141,0.0075453941964614,0.0103126341851736,0.0095935881939083,0.0052572472858466,-0.001485549682104,-0.0083777342327523,-0.0128373874062362,-0.0129051556297177,-0.0080994834929374,0.0001829604401161,0.008992913899981,0.0148821347643886,0.0153176570995255,0.0098340439471297,0.0003573446378806,-0.0094968738775455,-0.0158697541383365,-0.0162282257020063,-0.0103907453450844,-0.0005959664012053,0.0093869586442116,0.0157299300387295,0.0160234463628824,0.0102049177833623,0.0005872199594479,-0.0090417154793085,-0.0149240733535765,-0.0148488888875372,-0.0090385741417963,-9.199243412678812e-06,0.0085335809891304,0.0132595072833085,0.012546473946261,0.0070343931830382,-0.0007721550358008,-0.0076240681689259,-0.0108782434078025,-0.0095307794621282,-0.0045339245709729,0.0017119890966266,0.0064680291972006,0.0078813237409362,0.0057627830670555,0.0015475368184936,-0.0025260276326999,-0.0045761610531281,-0.0039686713089445,-0.0015011824361072,0.0011594958168505,0.0024350578114642,0.001664226435751,-0.0006041952778178,-0.002951852117515,-0.0013727374826556,-0.0001453109942018,0.0001673583114028,0.0029807153246867,0.0065983887160735,0.0026643318245151,-0.0008611888471453,-0.0049171688326743,-0.0076887172456166,-0.0080881144013117,0.0011653380761128,0.0065229409530395,0.0066166458616732,0.0049596202056629,0.0039345148185389,-0.0031428279811049,-0.0053525985267001,-0.0041244104654468,-0.0015851014439034,-0.0001593992247015,-0.0003988471076605,-0.0006364991674491,0.0012968601372437,0.0026944916455463,0.003384636288959,0.0031090266460693,0.001663209923025,-0.0007893853132107,-0.0035065641935056,-0.0053105841902215,-0.0051189033287352,-0.0026083138203086,0.001408752491757,0.0052138580265393,0.0069833423723821,0.0057436701726181,0.001927895624232,-0.0028008555679585,-0.0063593806990657,-0.0072308685574121,-0.0051140666751898,-0.0009642245270147,0.0035032659648722,0.0065510921638964,0.0070721187336989,0.0049261051838388,0.000877963534432,-0.0037929402057579,-0.0078114554844028,-0.0102919067061789,-0.0034641832679362,0.0025020553239393,0.0071278520140026,0.0088670373821617,0.0061637637031668,-0.0018593215211795,-0.0006312830251832,-0.0029904204291487,-0.0065851812806633,-0.0093051426810158,-0.0056526312224853,0.0007099765451039,0.0101853299275799,0.0130572608616658,0.0103239507719156,0.0022884103156192,-0.0073814216026882,-0.0165370495311479,-0.0113562830838251,-0.0060746557660777,0.002899275818991,0.0084911028072739,0.0158262195662644,0.0141371944920948,0.0016411323339318,-0.0094808735622272,-0.0111610266476658,-0.0099758268673667,-0.0068805341328038,-0.0028314153877051,0.0014728995587043,0.0116504736948153,0.0147264036396493,0.0117155096789557,0.0013247753450296,-0.0087968865197036,-0.0154221260037351,-0.0159696929368772,-0.0045741971793682,0.0052897082844814,0.0108261837375965,0.0112621779302543,0.0090902252742332,0.0015521112818808,-0.0048903818589215,-0.0094838956982772,-0.00453931153505,-0.0025348802154423,-0.0056530813796456,-0.0007884191687105,0.0051899721270135,0.0074368325239592,0.0064720467827411,-0.003895834383507,0.0008813288979292,0.0083352412228681,0.0019575688928513,-0.0130105800592457,-0.0106173509415413,-0.0061794916787017,-0.0048571566084172,0.0022007041622448,0.0194843447084394,0.0150241868584578,0.0079974717022351,0.0001766102930278,-0.0141440966261566,-0.0254707882645807,-0.0099672506710986,0.0044144841006723,0.0102531242653472,0.0121753604953236,0.0118881014476367,0.0048982236358065,-0.0127938224736686,-0.006386631202425,-0.0028202984370768,-0.004437911161643,0.0068201710883592,0.0046545251468224,-0.006236514400326,-0.0044458148400195,0.0010679413142307,0.0053012051752432,0.0093715187954043,-2.9737702706781952e-08,-0.0082683796430932,-0.0092105363328754,0.0065435430820027,0.0050695842053165,-0.0016360813657698,0.0036305673479476,0.0013831738453959,-0.0124357573019044,-0.0060377356588896,0.0028310006993425,0.0094326800292848,0.0008065068272747,0.0103169954774297,0.0014142726227972,-0.0029100657962551,-0.0132089446225127,-0.0059570846862439,-0.0024467773752713,0.0034949059061526,0.0067908231172788,0.003583490592734,0.002738940421396,0.0027051971108004,-0.0006507005804425,0.0001936328725788,-0.0089426809779146,-0.0061244963415273,0.0022813095988237,-0.003452516268644,0.007104252587215,0.0083284725676453,-0.0006355290620128,-0.0030119057334267,0.001012735969754,-0.0009318755223647,-0.0046176817416519,-0.0107828482328493,0.007134951747531,0.0090383915809846,0.0040469790315707,0.0010134054554267,0.0006876204175195,-0.011822036568601,-0.0132375935852089,0.0029032087861189,0.0093015562491749,0.0005204988555715,0.0125598799031903,0.0107249855752064,-0.0035363007319442,-0.0162417303581485,-0.0100967351847924,-0.0004168135067502,-0.0067968498758636,0.001780133630079,0.0118602812579709,0.0135616793714662,0.010480510024064,-0.004280606958038,-0.0127147064248699,-0.0073717582342602,-0.0034314625757569,-0.0011741883072832,0.0005573996621931,0.0006453637509406,-0.0009162288631806,0.0072981646829634,0.0129939127029045,0.0024105181655844,-0.0074216027314947,-0.0099452527177681,-0.0042349205995446,0.0038886528100998,0.0052005296283506,0.0003824549171293,-0.0074197661214913,-0.003821096871881,0.0037067381028499,0.001351574587848,-0.0016616336324274,0.0125984550454001,0.0113943997364561,-0.0012438319919852,-0.0120636692027463,-0.0129292124969185,-0.00554392572335,-0.0046854406424039,0.0052760186511292,0.0065175527079663,0.0078903838745738,0.0071836623067507,0.007259864705295,0.0017947515063404,-0.0066424667218887,-0.0108823506480535,-0.0112044471203583,-0.0089577099876006,-0.0013261984718132,0.0084383493064088,0.0132609448255946,0.006350057196358,0.0114755301200758,0.0039351041595891,-0.0087077212614183,-0.0154513357649948,-0.0098080791520654,-0.0053722512112671,-0.0003886075455916,0.0059039437163049,0.0102662349935603,0.0091674245826797,0.0060387518118729,0.0013691028129333,-0.0064353042080563,-0.0102035464239548,-0.0070781519103725,-0.0036296143862734,0.0024176699359217,0.0034376317071486,0.0054997168386755,0.0066038963798021,0.0037924591707567,-0.0034745852972795,-0.0068388215145908,-0.006773143061405,0.0004402333759258,0.0065293794602066,0.0061723260255871,0.0004411750924916,-0.0042991766455452,-0.0061866892574317,-0.0071446782608479,0.0017423486950134,0.0061570886874766,0.0082331387189986,0.0065927286798227,0.0015046443791161,-0.0049082648149415,-0.0095363994603819,-0.0105715443268798,-0.0054114300798712,0.003918406278094,0.0117752962141431,0.0108937155641973,0.0051931972343534,-0.001207350127534,-0.0051564388483944,-0.0085175400751288,-0.0098892673690608,-0.0053632265625389,0.0020490292354812,0.0063146809248356,0.0102868680243972,0.0094651722530037,0.0064123894484807,-0.0044143978089281,-0.0098051307941271,-0.0128090753421661,-0.009653895250058,-0.0037913516639648,0.0079146721980414,0.0143624811677796,0.0138506717955093,0.0072601017579643,-0.0022959051883058,-0.0106903153991919,-0.01443099497478,-0.0120489867774879,-0.0046385779214623,0.0046568543739876,0.0119717449672862,0.0143044711354643,0.0107284829225664,0.0027435794878225,-0.0063874627127713,-0.0130513196688178,-0.0148254780016428,-0.011423871372684,0.0027555992810295,0.0099034022034397,0.014444511710516,0.0121280807558178,0.0032064603566405,-0.0030751645941462,-0.008731681275706,-0.0112049976053129,-0.0093669999202426,-0.0039424760042045,0.0028798906924245,0.008412028264117,0.0105627622534341,0.0086171942909148,0.003433744591982,-0.0029512553779565,-0.0081147060146758,-0.0101344534593105,-0.0082746934242202,-0.0032481219398786,0.003036325880557,0.0081695904055692,0.0101491756864797,0.0081611122131118,0.0029264114916003,-0.0035389293168151,-0.0086750466741416,-0.0103710340404723,-0.0078338178058952,-0.0019882245600036,0.0047984271519273,0.0096333899043738,0.0103414120344959,0.0065069061166889,-0.000218598467106,-0.0067950640990172,-0.0102077489711614,-0.0089223528820921,-0.0036222544593627,0.0031477255598124,0.0082254048897004,0.0093292074887518,0.0060952234913343,0.0001884545276877,-0.0055378271758919,-0.0084203895765207,-0.0072361131613653,-0.0027251518552811,0.0028425610428764,0.0068085509427068,0.007395790927699,0.0045013612955228,-0.0003388448238132,-0.0047624055019517,-0.0067480649807424,-0.005551025727202,-0.0019542352753002,0.0022401471541424,0.0051536372926432,0.0056880961739585,0.0038864544170359,0.0007144056978946,-0.0024990326009269,-0.0046125227562989,-0.0049944621369661,-0.00360586297796,-0.000938530279987,0.0021312675924462,0.0045729367466736,0.0055019417681297,0.0044744897506569,0.0016731382361984,-0.0020817724685747,-0.0055065258720944,-0.0072059428949039,-0.0061748245650555,-0.0023325727217252,0.0031617063815084,0.0081091580251871,0.0100978969301051,0.0076921695452018,0.0013824433241987,-0.0063232437513261,-0.0118865775099212,-0.0124133145165479,-0.0071841333578965,0.0017787257446638,0.0104801134006628,0.0147731869546201,0.0123978089508799,0.0042157643568664,-0.0060567590170624,-0.0135884139080364,-0.0148201104634931,-0.0092657612707862,0.0002564516134056,0.0091110360694926,0.0132382653863293,0.011137943283825,0.0044043140629277,-0.0033602467266594,-0.0085286708748339,-0.0092052960268701,-0.0058866037242733,-0.0008393042511845,0.0033074042412933,0.0049224105479823,0.0039881077402929,0.0017587966623875,-0.0001997158044747,-0.0009514706779791,-0.0005812874497711,9.324916605738312e-05,0.0002024818185246,-0.0005681954228366,-0.001795065827101,-0.0026138485041091,-0.0022767560152494,-0.0006309676326074,0.0017378739412978,0.0037563125965477,0.0043769594385707,0.0031140564546919,0.0003432533663328,-0.0028038662232319,-0.0049331017651576,-0.0050417148537143,-0.0030043782557515,,,,
-0.005811742897156,-0.0047345571400099,-0.001809226657666,0.0021279998092822,0.0057106234593835,0.0074782137640188,0.0064838308660035,0.0028154766899594,-0.0022856689255943,-0.0068513867877859,-0.0089848173132893,-0.0076566860815261,-0.0031623648924402,0.0029132584351417,0.0082042313661446,0.0104176130863992,0.0083039904679777,0.0023864411011606,-0.0049753100476666,-0.0104385220375986,-0.0112384746584547,-0.0067147085718221,0.001119253520408,0.0084474812024534,0.01159679828359,0.0089914915287105,0.0020043190192038,-0.0057759201434155,-0.0104360625374961,-0.0097427650238965,-0.0042086630055838,0.0032714327149717,0.0089457416731132,0.0100712524876782,0.006197769921796,-0.000705666438624,-0.0072723744094444,-0.010366963606937,-0.0085398690350246,-0.0026540489924857,0.0045624640882252,0.0097972167290895,0.010667851732006,0.0067824965785628,-0.0001246872235354,-0.0070182282739973,-0.0109338778237647,-0.0102560266115757,-0.0053479960235024,0.0016875197688803,0.0079545419374718,0.0109748699791602,0.0096518209587312,0.0046240706814069,-0.0020714531191326,-0.0078379530110151,-0.0105131549559528,-0.0091578854031193,-0.0043723946114235,0.0019579983758258,0.007390105612739,0.0098575890386202,0.0084677915712136,0.0038543559957028,-0.0020700689909128,-0.0068927607886156,-0.0087135024368917,-0.0069556300640912,-0.0025894128411682,0.0023628114665105,0.0058084542174141,0.0065487813952641,0.0047174196407552,0.0014844715667047,-0.0017517831041836,-0.0016973873800751,-0.0060486897969239,-0.0081453891076841,-0.0036580238996128,0.0075937205710503,0.0073945533309208,0.0062870009362327,-0.0003772749719096,-0.0030300111995423,-0.0045648886561733,-0.0055688840234736,-0.0038412447568617,0.0003391835320085,0.0038514676189002,0.0058403577476729,0.0055367496987912,0.0052782989142588,-0.0016331939622003,-0.0060202870852812,-0.0084091003692757,-0.0074335799972463,-0.0031269866146037,0.0029109354196667,0.0081408813793079,0.0102136377689034,0.0080440618321287,0.002306316370847,-0.0048757722529326,-0.0108749687856325,-0.0136716712100702,-0.0077232005127361,0.0035328621395371,0.0106989146286976,0.0109432379191086,0.0075335646492214,0.002828053155495,-0.001069394744254,-0.0082788117409621,-0.0116278889446268,-0.0108011943160546,-0.0023783888899,0.005699745995294,0.0134629883667728,0.0123822674981066,0.0055389031442545,-0.004848083402176,-0.0117528259644024,-0.0081776717417851,-0.0033425124724123,-0.0003491579172466,0.0036766670738435,0.0040499204880153,0.004146347074215,0.0037524159693775,0.0012309945630422,0.0005798300007981,-0.0018079169970646,-0.0052101148271618,-0.0047059152246735,-0.0034280279894423,-0.0021994786703286,0.0031858483540566,0.007432280591417,0.0055168801326796,0.0024486582349287,-0.0013534456910951,-0.0027318509711022,-0.0055900708184691,-0.0019513845369104,-0.0014975962765598,-0.0022760618647262,-0.0003924515677039,0.003430552663521,0.0066437303936171,0.0042078004350731,0.0012571976078135,-0.0025544977897985,-0.0048516530783475,-0.0033355188073399,-0.0027907916592118,-0.0005452114671283,0.0014583807978889,0.0034709544082987,0.0037514438780522,0.0003576153113963,-0.0039769455136004,-0.0018387297790427,0.0010821156112658,0.0039892009510224,0.0056418547601495,0.0007576110256027,-0.0032611058133278,-0.0104098109205194,-0.0120078362086945,-0.002392720252389,0.0090513221693757,0.0143181449612594,0.0122328930314876,0.0036366867642732,-0.0048675469602211,-0.0102644519642628,-0.0135388187010382,-0.0078573369740156,-0.0017532140334857,0.0051832317842526,0.012014169615921,0.0093216768329464,0.0025473166508007,-0.0001199180445619,0.0018563843758516,-0.0068997943203528,-0.0068614201329466,-0.0063349887630804,-0.0078819899376692,0.0010154259108343,0.0046204959370634,0.0096039363340914,0.0094703311969852,0.005358620395773,0.0009480516043049,-0.0015422880884668,-0.0103604952826997,-0.0213613062371462,-0.0057206892260707,0.0049464647122219,0.0128928520875402,0.0152794178609934,0.0074429488780737,0.0008271494284311,-0.006305069718789,-0.0102384832687041,-0.0097471260930687,-0.0163985714642756,0.0065387713180743,0.0179094621846543,0.0124725042830935,0.0020737307507411,-0.0112380298803548,-0.0049759915517284,0.0032845351315254,0.0027825918620725,-0.0035799942299628,-0.0025340046746518,-0.0062589026079193,-0.0002609533653755,-0.0012335874998764,0.0068395918553081,0.004953089131761,0.0097584699425562,0.0045362504126297,0.0019529763125681,-0.0130689993416151,-0.0181046992518575,-0.0085808729914911,0.004358059682701,0.001052217985846,0.0077879633764257,0.0169838602500769,0.0177779553464298,0.0038895479880561,-0.0122780593230914,-0.0174281808564242,-0.0133154289235234,-0.0176888361867298,-0.0048047742075105,0.0154798947139051,0.0252206299014562,0.0217472304735189,0.003521692596919,-0.0093541859427338,-0.0146053308574198,-0.0185876947203543,-0.0138929268572909,0.0079901161563555,0.0167513272633273,0.0040258751260103,-0.0094123074322979,0.0088765193179186,0.0090809636594109,-0.0026765870705338,-0.0054625707943576,-0.0049664984528813,0.000313693472141,0.0017661211166135,-0.0060642511882291,-0.0004019671351407,0.0031569530450786,-0.0001700159705398,0.0022706805529485,-0.0060697311068743,0.0059199797078516,0.0125431745787244,0.0072746501900339,-0.0074599588234696,-0.0244413457653279,-0.0123586128411001,0.0155972823502048,0.0167219641328305,0.0039628707834598,-0.0098487229724787,-0.0066015118574,0.00408133028272,0.0056562942343078,0.001765811158759,-0.0074501293093829,-0.003551211880419,-0.0012197818308385,0.0063734507464638,0.0047138852561779,-0.0028966288322433,-0.0021588940905552,-0.0029258872734045,-0.0037212903695778,0.0011137223285239,0.0087040535101118,0.0045644784061015,-6.187709137941237e-05,-0.0046130166673881,-0.0042119949731136,-0.00887849465162,-0.0014898080620371,0.0087828766814966,0.0071696423300057,0.002344886507201,-0.0005990050669738,-0.0039407154817789,-0.0018472961997805,-0.0016331739000587,-0.0065779647071082,0.0031346299095486,0.003225897834638,4.154917042056442e-05,0.0028981289440341,0.0025514300865697,0.0007040553473083,-0.000543673519499,-0.0051937476879558,-0.0029081501662358,0.0043093670006649,-0.0009523363823768,-0.0028650738758084,-0.0019618226909546,-0.0014912881249593,0.0024747797209642,0.0076104905724807,0.0096134844707633,0.0009346179802155,-0.0082120826447864,-0.0072788037225737,-0.0055905603663821,-0.0030736944616774,-0.0020800737617651,0.0011327217972387,0.0074800047829651,0.0098864709970991,0.0068049027827766,0.0046822654038326,-0.0020361739497082,-0.0093542116883509,-0.0137616443221002,-0.0107415474430106,-0.0034389475987215,0.0053357653276416,0.0119494964042122,0.0136144239462214,0.0095979879600625,0.001444211810094,-0.007784231075305,-0.0098864813046859,-0.0098764512609035,-0.0049647864521008,-0.0011998906098216,0.001219361805017,0.0046358365175833,0.007477079268474,0.0067921940338863,0.003133709571242,0.0025828710204126,0.0017191824771494,-0.0052894765118312,-0.0100027518119884,-0.0089421770349926,-0.0067904542363826,-0.0021176631775614,0.0056320623040105,0.0112992947191223,0.0126600241946495,0.0090038880131379,0.001657500986599,-0.0064365928276908,-0.0119704301004344,-0.012747303599439,-0.0086344879402729,-0.0015234343448689,0.0056312722757353,0.0101500722354559,0.0106682923403476,0.0074550812132658,0.0020247266279027,-0.0011372865242378,-0.0053667033154767,-0.0098105107210719,-0.0094122327575992,-0.0045546586772791,-0.0007806392720741,0.0037203656196262,0.005516688090424,0.0084558745862961,0.0089145771612068,0.0062457995270623,0.0007716372840169,-0.0059593806570768,-0.0114595574675307,-0.0132021273521539,-0.0098095550441929,-0.0019452376227668,0.0076210227670966,0.0149503572154745,0.0165803679861198,0.0112042758746428,0.0005783336167063,-0.0109278466237967,-0.0181457959188125,-0.0175558491519776,-0.0091482366588949,0.0033679689077256,0.0142540068857334,0.0185296062034918,0.014417327194053,0.0041569836392511,-0.0072175207251638,-0.0144531043439075,-0.0146317116139118,-0.0084094931172771,0.0006055728116493,0.0079030968548994,0.0104038344130532,0.0078424192681412,0.0025302855733271,-0.0022499196935205,-0.0042107520622614,-0.0032226630171015,-0.0010392377817901,0.0001440826228287,-0.0007005446786211,-0.0027324951994616,-0.0038943983312861,-0.0024472826295821,0.0016536353169266,0.0064639438684798,0.00906598711789,0.009797853755945,0.0011582042047323,-0.0069037400135731,-0.0130013606161573,-0.0137292104943585,-0.0080544448973029,0.0018928075447457,0.0116626794997921,0.0166022100435258,0.0141752060369385,0.0052808766562465,-0.0061140717531751,-0.0148458429155423,-0.0169917651014444,-0.0116810389244152,-0.001424085953201,0.0091394346676177,0.015407699407326,0.0148476199253287,0.0079925907591226,-0.00194340159356,-0.0105656801312889,-0.0142227306944593,-0.0115498291881631,-0.0040012258824946,0.0048583290903168,0.0110050876834418,0.0118063265361957,0.0072010600430907,-0.000352149785899,-0.0071290894160499,-0.0099753200919212,-0.0078122932280418,-0.0020681848786576,0.004156683987334,0.0077236337348606,0.0070293051842757,0.0027315524663859,-0.0026964850264817,-0.0063135768416082,-0.0062514627982772,-0.0026609522723586,0.0024131797343839,0.0061469836112557,0.0064456699887613,0.003055878563705,-0.0022850938736943,-0.0067314800804365,-0.0078001316935181,-0.0046963091731587,0.0011902265332614,0.0069159191696239,0.0094662527704528,0.0073433635273651,0.0014133777867156,-0.0054696690139016,-0.0099005162928205,-0.0096726397278825,-0.0049052753547941,0.0020543886980681,0.0078787771977303,0.0099549345959237,0.0076082813571523,0.0022471042146843,-0.003539197808989,-0.0073253391338814,-0.0078849708878785,-0.0054717005405876,-0.0014004654775607,0.002679780359696,0.0054152344781112,0.0060847251454282,0.0046756170601294,0.0018014284674067,-0.001496962642376,-0.004073121542139,-0.0050664742118145,-0.0042130308977266,-0.0019254536486934,0.000890932940593,0.0031922882583526,0.004176209619235,0.0035601156434999,0.0016694468176545,-0.0007010828465082,-0.0026124073727008,-0.0033666190620187,-0.0027864470298702,-0.0012617236781115,0.0004569236512228,0.001619932216368,,,
0.0018020048150848,0.0015111050678672,0.0005527503621176,-0.000503042277397,-0.0011369136738417,-0.0011218768037325,-0.0005888605050598,8.345848771448148e-05,0.0004945894183061,0.0004610160888461,0.0001338640613587,-0.0001077444755087,4.523163659146193e-05,0.0005452502728141,0.0009562124776757,0.0007477268569759,-0.0002742379836979,-0.0017218330415346,-0.0027751080066442,-0.0026616758662904,0.0013201612203443,0.0035424216562352,0.0027699777312554,0.0028596886986401,0.0010227061681835,-0.0019100159608096,-0.0043985203084948,-0.0050100762320195,-0.0031927688996864,0.000387975982115,0.004124154145444,0.0062250458348843,0.0055923111499195,0.002374243730367,-0.0020782173714166,-0.0058245609598704,-0.0072072978382388,-0.0055751074728878,-0.0015536722188098,0.0032248999173616,0.0068088369241131,0.0077413588323546,0.0056497551421713,0.0013524040405012,-0.0035277585777844,-0.0072135315788972,-0.0083865340110837,-0.0065728496069304,-0.0022643113033692,0.0031942169254101,0.0079380351741882,0.0101277793559804,0.0086207375955911,0.003550524361465,-0.0034822304646127,-0.0098250330225922,-0.0127543756045669,-0.0106672410051817,-0.003945337856087,0.0049698327253814,0.0124351399386013,0.0151174828110032,0.0115325525299711,0.0028824375677017,-0.0072970381043651,-0.0146309375963048,-0.0158900399047708,-0.0104970546538783,-0.0007934898841658,0.0090540556466063,0.0149414078714334,0.014593302676705,0.0084284366447668,-0.0007770692150036,-0.00918002562761,-0.0134998796837777,-0.0123021406359784,-0.0064477840492592,0.0014182230095854,0.008072815776684,0.0110663975863916,0.0096321338710405,0.0048032439901851,-0.0012209061639695,-0.006089280470083,-0.0082118279150881,-0.007216799812701,-0.003867319133197,0.0004021864426858,0.0040661278756344,0.0059867612565695,0.0056874776183495,0.0034155517705264,3.729257178246531e-05,-0.0032003101640378,-0.005039285751165,-0.0046913055280588,-0.0022895757191756,0.0009737603437161,0.0032867152277103,0.0056558074775095,0.0028152257972441,-0.0014978201093504,-0.0027409323708735,-0.003901579266397,-0.0022888391870071,0.0005211963664067,-0.0004571781833328,0.0049424385218545,0.0071088863315127,0.0009053960648105,-0.0033713803850513,-0.0084294884853734,-0.006569662578429,0.0028639388618595,0.0051051093453737,0.0046016993542443,0.0024929656989304,-0.0006501673292195,-0.0029412664574706,-0.0022555207860986,-0.0020327596665691,0.0003571145979596,0.0014916211573599,0.0022839283414133,-0.0008286984611757,-0.000912526743237,0.0004915069118935,-0.0001475953662241,0.0007085983623377,-0.0011642652574085,0.000939742288073,-0.0014640499139216,-0.0023110723271479,0.0004191870552717,0.0044930879858315,0.0035179650600681,0.0005857532370171,-0.0017329275363469,-0.0043733778915578,-0.0057242766389437,-0.0039860950255827,0.0034580018912224,0.0054098338350023,0.0051003896777395,0.0010392249420138,0.0032220909297084,0.0017497572948772,-0.0039074872060228,-0.0071420690476535,-0.008607860786862,-0.0056448380342828,0.0049776024134501,0.0069448491603642,0.0051625453706811,0.005743521005475,0.0025326954633893,0.0044295476258762,-0.0001801791620261,-0.0100926905381006,-0.0119187916304239,-0.0094639680458524,-0.0078704119318768,0.0039796841007203,0.0195770749443094,0.0181110393691345,0.0087785008764797,8.430783519876513e-05,-0.0081461185356995,-0.0157149387386842,-0.0212608935626694,-0.005680881983649,-0.0030136455123488,0.0054400649230114,0.0274824351770438,0.0236165155862575,0.0073431736166596,-0.0118044738141974,-0.019272375691077,-0.015705981936978,-0.0176642376299283,0.0030892001493184,0.0150793237581231,0.0154086555042198,0.0091238119888072,0.0002689616441493,-0.0023615718096847,-0.0033798413751881,-0.0075781882973023,-0.0048977894735699,-0.0091511249957956,-0.0057412329498958,0.0113262420814379,0.0190236042408803,0.0028938901127053,-0.0045789798790435,-0.0060568579798535,-0.0106675547213836,-0.0023723264554389,0.003920486733499,0.0048697534976505,0.005201780156097,0.0031347705665021,-0.0036851154279125,-0.0035949981046164,-0.0017025672812723,-0.0057821761613253,-0.0001594634945574,0.0073509403045496,0.0031216922353494,0.0023099770546554,-0.0011868963855826,-0.0029674351991483,-0.0043873268592235,0.0011614095688297,-0.0015095565894914,0.0036080535746111,0.006481325836057,-0.0014911696760788,-0.0126637834765347,-0.0017951142122091,0.0068094046184339,-0.0004766019470898,0.0100470525750467,0.0053530342060095,-0.0065443996461909,-0.006412335351556,-0.002155794766173,0.0007641847592394,-0.003244732396948,-0.0083233553058555,0.0041679786150524,0.0092176914886434,0.0072363211448254,0.0110624510256569,0.001840421596228,-0.0146722047266262,-0.0159281820087178,-0.0084164278527004,0.0034597755180171,0.0051600035893949,0.0132600935432812,0.0099016315022292,0.0040404906246949,-0.0074324758543863,-0.0128184210168593,-0.0003417462296201,0.0054454244266827,-0.0102708438026349,-0.0081702385206336,0.0130673683670448,0.0121450496800652,0.0003092719473472,-0.0078876465634551,0.0011559654530348,0.0034188998494724,-0.0005850862059464,-0.0027065718272329,-0.0089226345999029,-0.0064490276109105,-0.000763040902845,0.0058019196591615,0.0156375021485755,0.0129718734284615,0.0001078158276084,-0.0074134589896743,-0.0188783479032572,-0.0164983581855266,-0.0039800647885452,0.0131843052689664,0.017595465104148,0.0092582424606272,0.0057590533533212,-0.0033966010959228,-0.0107657223854768,-0.0072293563518389,-0.0094154287619145,-0.0121393900127624,0.0057504558368976,0.0169655018331475,0.0105695347972378,0.0028812121810573,0.0027686678856642,-0.0021497786616544,-0.010746887643531,-0.0136058996558847,-0.0046856890236113,0.0030404315195169,0.0038963953329941,0.0072612831872757,0.0115872780272672,0.0062540757408123,-0.0039175790603282,-0.0123187333565853,-0.0072231281148128,0.0017092740466104,0.0006578611974293,-0.0004246725732283,0.0011337091145791,0.0036368670805825,0.0040655438076073,0.0018273749821439,-0.0009429841905603,-0.0015563915019298,-0.004075598389189,-0.004625386338211,0.0030106806278953,0.0030230434329868,0.0004719398171107,-7.452515813712181e-05,0.0005263463253757,-0.0007703499583247,-0.0020861095168808,-0.001997762459114,0.0011171741314057,0.0017916134040517,0.0025571512288913,0.0015653218407052,0.0027231717859954,2.747232044938188e-05,-0.0055677761601931,-0.006408830751354,-0.0029986642243401,0.0012912367982542,0.0025212502915423,0.0041304283536754,0.0050640454378786,0.0052540727790069,0.0010904851352549,-0.0027296872900108,-0.0062691294044701,-0.005590432741111,-0.0054876678498696,-0.0053687366518786,0.0022534801871862,0.0076079854400747,0.0117269408514494,0.0093304511844268,0.0013020062787797,-0.0054989325154962,-0.0111526322784359,-0.0109282478050555,-0.0038199480930049,-0.0003425845298597,0.0045650449372307,0.0076253692195378,0.009224958030653,0.0065224816159207,0.0010468903873852,-0.0046824649600577,-0.0083630010136741,-0.0088455087329445,-0.0064298077810267,-9.410439271099114e-06,0.006027127497172,0.0078882809209076,0.0073006279862669,0.0046532285390684,-0.0011804831467318,-0.0063091788815267,-0.0069086482600621,-0.005141687410964,-0.0017026669375203,0.0020093731883102,0.0045373712289456,0.0049910542793564,0.0033630623690758,0.000446774396666,-0.0025470399832672,-0.0019906329681794,-0.0022826041172302,-0.0035428945134885,-0.0014245521657748,0.0007935167240161,0.0024992809524342,0.0033160569606187,0.0030676266636422,0.0017658250308593,-0.0003407699323554,-0.0027099810721504,-0.004547313000208,-0.0050177538111984,-0.0011114727532677,0.0019514228391832,0.0030470876452661,0.0055035460391055,0.0054199462473733,0.0024822715675076,-0.0022003515634205,-0.0064718114599585,-0.0081196103487207,-0.0060267167366298,-0.0008677367131957,0.0050840953577733,0.0090110195124339,0.0089487117936392,0.0047923812220913,-0.0016236823499126,-0.007403241629651,-0.0099539471575193,-0.0081656331032102,-0.002872616444775,0.0035664614122873,0.0083520710942817,0.0094963934350176,0.0066759420493821,0.0012914375102132,-0.004273432247517,-0.0077899503047444,-0.0081200022687255,-0.0055120720006786,-0.0012307530971368,0.0031374803986188,0.0062733046866629,0.0073880292943394,0.0062352555719836,0.0030753999891398,-0.0013105546158855,-0.0056558939551073,-0.0084548292059179,-0.0084591915559025,-0.005262154158632,0.0003231376461786,0.0063586097232741,0.0104334426822356,0.0106712967579787,0.0066453315088514,-0.0002827295531229,-0.0074366437180823,-0.0119319792833129,-0.01189815179242,-0.0072565613489322,0.0002570249733243,0.0077863884982021,0.0124582304577773,0.0124731574235029,0.0077885333205466,0.0001444419294052,-0.007581741490949,-0.0124603565389858,-0.0126344406863455,-0.0080529624252892,-0.0005034021179418,0.0070990662931319,0.0118814288479046,0.0121363815522222,0.0079247218507249,0.0009501230306796,-0.0061651026149152,-0.0108608985163375,-0.0115141946326362,-0.0079555424745721,-0.0015097527187071,0.0054488368632689,0.0103221677306973,0.0112494915713517,0.0078502274452641,0.0014233842866271,-0.0055245191475745,-0.0102622625831036,-0.0109285338021586,-0.0072783720464181,-0.0007732913552277,0.0060087923632397,0.0103924735927918,0.0106475745469817,0.0066584130116146,-2.779205592158307e-05,-0.0067874698931646,-0.0109241228215076,-0.0107204619311073,-0.0061466265842062,0.0010628033279471,0.008034797775657,0.0118853107626897,0.0109164816571443,0.005381813831454,-0.002535703606293,-0.0095717047676623,-0.0127371923053266,-0.0106189769334421,-0.004040465238027,0.0042495905725305,0.0107552411971126,0.0127536295947768,0.0094620084986662,0.0023358274409791,-0.0055986622182465,-0.0110499657448763,-0.0118360106823119,-0.0077610421271357,-0.0006468659675364,0.0064763260965068,0.0106635773220153,0.0102802215141261,0.0056488752550652,-0.0011349499357347,-0.0071248896824494,-0.009794322739311,-0.0081229515838185,-0.003024364876995,0.003096884334058,0.0074736180767997,0.0082557659550662,0.0053178831445551,0.0002186459475804,-0.0046202585128988,-0.0070707392949068,-0.0062259803859986,-0.0026976701934275,0.0017891269234673,0.0052485192012071,0.0063030439431515,0.0046852227532819,0.0012126676177392,-0.0026573943980925,,,,
0.0041712802713972,-0.0001513645124135,-0.005057625207787,-0.0082399016768514,-0.0080260624863535,-0.0042135216844392,0.0017982354082571,0.0075832413116605,0.0106727482925524,0.0095500086534432,0.0043131347041735,-0.0032250343803832,-0.0100921717405658,-0.0132667307048407,-0.0109934456313197,-0.0037479117779126,0.0056894063340065,0.0132534485700435,0.0153767957908121,0.0107461269809988,0.0011362653387287,-0.009221812407343,-0.0155702204926094,-0.0149467081143378,-0.0076853375045323,0.0027430835671803,0.011489590938869,0.0147338220768286,0.0114515230587075,0.0036624018632772,-0.004837678065511,-0.0104376316670085,-0.0112760589743236,-0.0077172400586552,-0.0017615207954361,0.0040640083063916,0.0077247335468662,0.0082630111534189,0.0059009024000008,0.0017743181305915,-0.0025471130987024,-0.00560071928105,-0.0064851854508662,-0.0051028198807308,-0.0021203970233129,0.0013245356333566,0.00404940508139,0.0052240470521126,0.0046095206275129,0.002568894036311,-0.0001484563507988,-0.0027601481654451,-0.00477377089244,-0.0061029482304625,-0.00204037493333,0.0022118073883798,0.0037481472305504,0.0020949496152166,0.0038696957060104,0.0011342408453717,-0.0090475865013002,0.0008510919835939,0.0076282335161499,0.003315398627592,-0.0030604660455788,-0.0057293493247072,-0.0066646650868381,-0.0013140210537434,0.001908750565272,0.0036409158243254,0.0043159956473764,0.0051393862304279,0.0037472236351893,-0.0012876763058593,-0.0040151516680693,-0.0061854657146792,-0.0053851268653475,-0.0022985966162957,5.8222040252578986e-05,0.0014399791045027,0.0093844706933586,0.0071721263255441,0.002269487630347,-0.0037351318673031,-0.0090337659682474,-0.00130851117121,0.0010566556474849,0.0021911624930196,-0.0011148860743919,-0.0054914191745634,-0.0018546515210123,0.0033913731399021,0.0052319618865026,0.0063765241043767,0.0030526980260176,0.0009515916901225,-0.0052009162853729,-0.0050586451407275,-0.0085617868973221,-0.0050977949793245,-0.0007818441930951,0.004123533514512,0.0094132013611978,0.0106309459388522,0.0072877800917155,0.0003966498239323,-0.0079137036180574,-0.0125128485716198,-0.0111150682233887,-0.0049088793830229,0.0009576981142101,0.0065968587685703,0.0111072196243959,0.011531969750751,0.0093946415238615,0.0009705479718207,-0.0086244852960619,-0.0136158153001097,-0.0142775282181847,-0.0076690424717758,-0.0002766178818144,0.0075240491706495,0.0125211798028302,0.0124394717219888,0.0118793017684312,0.0053864169783782,-0.0059054647920573,-0.0161961484023839,-0.0184160715823561,-0.0124964564648381,-0.0032610754971193,0.005477527685726,0.0173198881879355,0.0199986318644965,0.0139130153467629,0.0036555815892282,-0.0116357227232032,-0.0183742477539402,-0.0160720934165488,-0.0091096233063153,0.0002640086467569,0.0078515381467655,0.0115670933018805,0.0128328864511969,0.008850148132997,0.0019911759299012,-0.0032534905046166,-0.0122455613022994,-0.0120241362403335,-0.0043795315962509,-0.000840868090256,0.0024577114885854,0.0038719456932279,0.0051530430099129,0.0102492497520586,0.0055209910317411,-0.0045279779427717,-0.0050489215639959,-0.0061920300402836,-0.0042881278464899,-0.0017237126255902,0.0054778343932365,0.001561380296505,0.0002240420093702,-0.001584235338474,-0.0010387805440322,0.002499083588165,0.0045990997905554,0.0029478166958564,-0.0004096211894538,-0.0061977155359215,-0.0023963310722442,-0.0009966406684068,-0.0018200822509261,-0.0001727856126467,0.0007478956931682,0.0019120979102036,0.0070370027676946,0.0010888244240038,-0.0029736648396929,-0.0006552359133152,0.0012215483073545,-0.0023569530836721,-0.0057467108933231,-0.0003051258507435,0.0016328733667007,-0.0004372969202969,0.0008620835880586,0.0049160104980638,0.0033496091660569,0.003447886139861,-0.0022413575732505,-0.0057218614865789,-0.0107045223696069,-0.0003583857995552,0.0060174842480015,0.0048684940022505,0.0048042886179936,0.0017118363059353,0.0024029842795919,-0.0071509697489635,-0.0136710587042268,-0.0018080729523394,0.0080215920614968,0.0095541548990053,0.0044319904775964,0.0013395121590702,-0.0083891464214311,-0.0070461614119525,0.0012049441624818,0.0006451801798937,-0.0001804859509889,-0.0018746203809312,0.0104082263130435,0.0017158563894064,-0.0092027499191537,0.0021322815115224,0.0066013124884322,-0.002527130459517,-0.012024166321508,0.0032294834857748,0.006166431870747,-0.0002239398983898,-0.0027658369783449,0.0013789000244475,0.0015708891763774,0.0032869693797863,-0.0005922087079215,-0.0013468901690678,-0.007902683518794,-0.0006639271033762,0.006150694979097,-0.0003991989997421,-0.0038549428118303,0.0082231894317937,0.0015835349301623,-0.0050466283934065,0.0060535272337862,0.0007224368925904,-0.0120929125833498,-0.0151377835550423,0.0053277194307432,0.0139688497492092,0.0123695200774004,0.0028578582429594,0.003130420793085,-0.0074805399639806,-0.018727942825905,-0.0137767490397639,0.0041378475129867,0.0091390552668507,0.0093247303290424,0.0084543877634102,0.0067808364535054,0.0058706697014188,-0.0044776595171172,-0.0179751920908596,-0.0247936840165519,-0.003424632355191,0.0156982662076872,0.0144159875690543,0.0138824551892607,0.0041553076238891,-0.0087816387971292,-0.0053750222748819,-0.0003096112953173,-0.0045797226224711,-0.0097640663351246,-0.0067115229752916,-0.0015381684940789,0.0082897051407015,0.0123072071704852,0.0140813423582061,0.0063799146004982,-0.0030772049317856,-0.0116261135416498,-0.0158318144818134,-0.0111682541656226,-0.007203579931475,0.0052999040900981,0.0158202566007432,0.0109423904825631,0.0183512946065987,0.0067790145010076,-0.0103842905426791,-0.0158944610382959,-0.0260763794889049,-0.0149575582271767,0.0078702698329433,0.0210868636426006,0.0202276982585583,0.0117745183927654,0.0011151931680115,-0.0128142988126777,-0.017665934257862,-0.0093651564880879,-0.0038893648036121,0.0051249931985755,0.0080309500937596,0.0094699457500755,0.0024578674343472,-0.0016395165117625,0.0029834561493556,-0.0008387483115409,-0.006322007884145,-0.0073317377754078,-0.0016887247620586,-0.0003195060543551,-0.0029744841683222,0.0058565895268694,0.0135821167802749,0.0043212035682591,-0.0001696817571927,-0.0029919658243137,-0.0126975923800468,-0.0150959671833228,-0.0014821228913791,0.0097494218277256,0.0151404695686938,0.0118474221788372,2.0603167180874537e-05,-0.0070115145649395,-0.0126432349625894,-0.0131221114235361,-0.0058821516527125,0.0129864850901675,0.0166041704813937,0.0064126338636735,-0.0081217123502555,-0.0075057516520002,0.0018459863593557,0.001069046584753,3.353166920949245e-05,-0.0040736978748172,-0.0055771501473489,-0.0040887671378452,-8.372519003978368e-05,0.0072957953014634,0.0195345665751513,0.0134571376754572,-0.0034422577075832,-0.0215246454491649,-0.0338324109681538,-0.0039464510920969,0.0163557765015081,0.0178116487863894,0.0156495293712121,0.0066520113706078,0.0007688836048441,-0.0075996054040133,-0.0120486582166463,-0.0177076950532233,-0.0181875604159734,0.001445403148758,0.0203548901002834,0.0210711559518052,0.0148795979543692,0.0046438370074091,-0.0067575682826555,-0.0204231076707508,-0.0163309931751386,-0.0062775194170592,-0.0028194253043509,0.0041781270915968,0.0110488463056852,0.0128580122982479,0.0144042339637695,0.009627472428305,-0.0101797750783954,-0.0141037086233852,-0.0105727400629485,-0.0107429101061062,-0.0084065716106308,0.0016165873939919,0.0140871141918789,0.0161625046036192,0.0107988200012295,0.0062257935941632,-0.0053014549528853,-0.0132420558755126,-0.0124440852285405,-0.0076891612896696,-0.0033209858822349,0.0017129598320514,0.0102785551893196,0.0106137721394979,0.0077818671066332,0.0022056922555051,-0.0038546669458448,-0.0070661695669027,-0.0084084197586957,-0.0068646397789978,0.0034637911843582,0.0048902251252476,0.0024594834251462,0.0018193632495836,0.0013516495148871,-0.0010263935660828,-0.0007281136596036,0.0015823393899732,0.0031852500431905,-0.0025556009764059,-0.0049644757802143,-0.0028290620979815,-0.0004115469973727,0.0014718972585018,0.0007044508668898,0.0026005855179869,0.0039797243982712,0.0057400747002477,-0.0016840229225226,-0.0041424029288316,-0.007697712767541,-0.0057335714323343,2.046498775701482e-05,0.004708258815786,0.0066533607180119,0.0071842756221482,0.0015052099397243,-0.0042870533181101,-0.0082960644306976,-0.0010305100278218,0.0023582834128947,-0.0002143425369892,-0.0027063508688241,-0.0027634188926579,-0.0001933420920904,0.0062523499663935,0.0072182143693097,0.006568949246185,0.0011873765016874,-0.0076491854879919,-0.0121957161279744,-0.0105808231648359,-0.0033815805663009,0.011416186402206,0.0138030047948875,0.0083168899446818,-0.0008380698801503,-0.0093752843078752,-0.0072200587157928,-0.0002842830814492,0.0032102919745855,-0.0002147885281671,-0.0004222774946814,-0.0032212312315509,-0.0002636643668014,0.0048077186299582,0.0035167890313358,-0.0047540959312271,-0.0006662068039457,0.0068142983909153,0.0021520429789863,-0.0038210940754293,-0.0005921173402405,-0.0027494598469485,-0.0068833201891247,-0.0074430719871958,0.0056070645500638,0.007119952196897,0.0047168170934795,0.010320983715696,0.0023847827929269,-0.0064716060150215,-0.0101001481027663,-0.0109415613555684,-0.0084826165469226,0.0095785927405679,0.0141354451005506,0.0078767796820578,-0.0028003898419876,-0.0077969660533946,-0.0023617032042377,-0.0005217454978642,0.0025961245447941,0.0025937994928471,0.0008160776116178,-0.0052141184120714,-0.0105303118245692,0.0033345598366488,0.0093741615238444,0.0084002201054079,-0.0013761959390252,-0.007204482008081,-0.0056038121495967,-0.000140325416821,0.0059775865811667,0.0059921227631293,-0.0010821791498969,-0.0073231573308351,-0.0095468939954524,0.001440128073213,0.0069634971625022,0.0060883346250314,0.0044134978376194,-8.184173135634944e-05,-0.0008351904612277,-0.0021185720628266,-0.0039387414525326,-0.0121149325687195,-0.009752176054276,0.0021941444066384,0.0155371820352924,0.0220460374742315,0.0162603576359617,-0.0057185381102387,-0.0253939773310255,-0.0378165214011606,-0.0084095957295862,0.0099226982952647,0.0329700920119219,0.0330385650486615,0.0146970249569483,-0.0118414245831669,-0.0433229265608552,-0.0421074391344406,0.009922015209851,0.0281307941180763,0.021687063303083,0.0084420077231913
0.0127784224678756,0.0066693195538017,-0.002701865954306,-0.0112639398091044,-0.0151395223308645,-0.012442940829003,-0.0042040156334475,0.0060404281326581,0.0138070229126708,0.0156608772903097,0.0107466415956391,0.0011801438665397,-0.0088746194709448,-0.0150466944259874,-0.0147017645035306,-0.0081000449303336,0.0017699044298754,0.0105875189600686,0.0146444170327108,0.0124278491653933,0.0051620931292163,-0.0038601807969587,-0.0107927334460494,-0.0128964383432764,-0.009621278531998,-0.0026798625726268,0.0048399269213096,0.0098572474134075,0.0105502083694325,0.0069832706231819,0.0009233242484553,-0.0050089668685473,-0.008461223851263,-0.0082714562209327,-0.0048276991877118,0.0002342726805304,0.0048001984255341,0.0071413648451851,0.0065217749063337,0.0033694476711497,-0.0009714188447861,-0.0047715035523323,-0.0065519161450501,-0.0056287486463363,-0.0023776856429017,0.0018953312359533,0.0054470171143901,0.0067786173012727,0.0052530765886446,0.0013990095068015,-0.0032494653156175,-0.0067441759830015,-0.007518548831744,-0.0050674569753189,-0.000234262486519,0.0050410105068737,0.0084720315320994,0.0084115622321371,0.0046446451486526,-0.0014046836396971,-0.0071966380831619,-0.0101403306920573,-0.0087617386667668,-0.003457141623664,0.0035615764189191,0.0091934150656848,0.0108733825034766,0.0078095288851402,0.0013841066662765,-0.0055088743159167,-0.0098489154009285,-0.0098813550996272,-0.0058334379596012,0.0003371793978164,0.0059508670022932,0.0088206445996865,0.0080927323876172,0.0043958380665261,-0.0006307441007383,-0.0050866746912685,-0.0074778345064919,-0.0071147216401421,-0.0042290043842706,0.0001427480827747,0.0044696263062995,0.0071874255474626,0.0072199601014674,0.0044157766570746,-0.0002753037195694,-0.0050367550485887,-0.007853258312201,-0.0074011413240319,-0.0037413940185035,0.0015979943576527,0.0062724124385132,0.0082099509155424,0.0065840794243734,0.0021774235858515,-0.0030234436886874,-0.0067710750188054,-0.0075639070909696,-0.0052483996336999,-0.0009755904377492,0.0034059004465215,0.0061849476881437,0.0064553527783093,0.0043605860128953,0.0008923086284256,-0.0025955378690517,-0.0049234612252694,-0.0054687703324636,-0.0042775338785297,-0.0019108031418349,0.0008530933739496,0.003285954482924,0.0048328729770978,0.0051151124444475,0.0039376548923649,0.0013963100620964,-0.0019625143503501,-0.0051065271491788,-0.0067756821961895,-0.006025817536276,-0.0028054618136199,0.0018116134212868,0.0059774774600644,0.007892710967168,0.0066709029570346,0.002773495164886,-0.0021987060354451,-0.006215439289659,-0.007669790414885,-0.0060188985891882,-0.001992913839071,0.0026926134543781,0.006036193332083,0.0066168835861961,0.0042596976520326,0.0001542764772264,-0.0036922847227312,-0.0054404804289915,-0.0043450944839154,-0.0011242661116874,0.0024361045130298,0.0044308490715614,0.0038316872490906,0.0010137589519363,-0.0024524378468735,-0.004632709612928,-0.0042569848945346,-0.0014121363260254,0.0024688425496628,0.0053358648805455,0.0056024967362072,0.0029967817345047,-0.0012996359487881,-0.0052989733217978,-0.0072384560857612,-0.0038997644117883,0.0015427191725024,0.0028596186171767,0.0030413318457792,0.0036739433289569,0.0023945755365766,0.0002479653766483,-0.0015205091208065,-0.002160517375006,-0.0017297656291267,-0.000903974683018,-0.0004407484884317,-0.0006376172836147,-0.0011193448554319,-0.0010970996835627,4.201498631041149e-05,0.0021786112109692,0.0043219260057068,0.0050523783571041,0.00335658789993,-0.0006155866384461,-0.0053655213296818,-0.0086423161150758,-0.0085764917944355,-0.0047412142047376,0.0039689122550383,0.0098628480582039,0.0126444759514647,0.0082455314274774,0.0021780541969622,-0.0055722153469774,-0.0116499752146798,-0.0134080857333662,-0.0076835420752415,-0.0012063693162705,0.0050654590504683,0.0098948110840723,0.0161915323174019,0.0120768345984587,0.0002725029243542,-0.0079764640885729,-0.0138067780465458,-0.0129662925274539,-0.0087599286513289,-0.0047148536251775,0.0045447412782152,0.0157941826344298,0.0183495706691172,0.0117407696772179,0.0016424186235513,-0.0109653152349369,-0.0190806062303049,-0.012615075778064,-0.0076037745834797,0.0034597696607272,0.0084549007662517,0.0131889261597172,0.0101935042769948,0.0025765404335524,-0.0008486409150546,-0.0060362889646022,-0.0070203665831098,-0.0060704792922095,-0.0036333830244803,-0.0005739587594422,-0.0002465751402684,0.0014178283983303,0.0065957269071296,0.0078859821290086,0.0054691137432826,0.0018535551996184,-0.0049925493025592,-0.0093713666335512,-0.0050213703777532,-0.002976417023106,-0.0030743838348157,0.0029009088401008,0.0030805994040449,0.0074851897466826,0.0078751062810128,0.0071347812761669,-0.000614040877923,-0.0113157661233236,-0.0116360851145171,-0.0108111041302871,-0.0039010058855,0.0116950145929516,0.0138477910762315,0.0074065815089011,0.0042697256503612,0.0019181494449128,-0.0096184835839929,-0.0159203058196586,-0.009699342618008,0.0023716808625022,0.0060349437570256,0.0088365744953281,0.0075099529444506,0.005835597445379,-0.0016467749803302,-0.0024300923225601,-0.0067499963474847,-0.0075691167707758,-0.0059945304041358,-0.0025095967110287,0.0024830256993155,0.0073231250406767,0.008580879011139,0.0097425047305815,0.0074223910957588,-0.0044465855678524,-0.0148209983008375,-0.0158304459299467,-0.009153133431877,-0.0011947554663146,0.0093773413826584,0.0206338466059779,0.0146570537061856,0.002657057439902,-0.003738853848045,-0.0126370617714829,-0.0163922462925214,-0.0084827468100332,-0.0044969054736443,0.0034620256068263,0.0119969633800334,0.0143916872597124,0.0131823538757274,0.0057079542054164,-0.010431586690171,-0.0143043282053131,-0.0122659038096395,-0.0100733251731413,-0.0001787048912429,0.00809464558586,0.0113845520556703,0.0058891403413458,0.0109262301550675,0.0079496522142838,-0.004651743491156,-0.0146110995478854,-0.0142505881876556,-0.0090420048951435,-0.0022358006361816,0.0035411655566844,0.0113205274977797,0.0164703969149006,0.0126452258624219,0.0031185538988255,-0.0079287122282514,-0.0171767116447059,-0.0162427338902327,-0.0112338404500065,0.0025681423922792,0.0147788394284816,0.0162044953131826,0.0111805998825855,0.0035505386798108,-0.0042205519299511,-0.0093278221646822,-0.0144631647232627,-0.0122078410257034,-0.0041642156991678,0.006532402890013,0.0141230650038353,0.0135644686963944,0.0067337763222388,0.0024256102735077,-0.005696787136489,-0.0135735221267524,-0.0134548008776659,-0.0096961930026036,-0.0015195783431027,0.0102469650761254,0.0175240445671798,0.0134087137305671,0.0075620964933934,-0.0055541869640653,-0.0134602968632891,-0.013718758152407,-0.0100640572343785,-0.0031704417524177,0.0046262043657029,0.0102371453916756,0.0111087381673894,0.0064180929735039,0.0074495370058933,0.0002743954551171,-0.0089316206914707,-0.0130416316805463,-0.0119082054552367,-0.0070659119736601,0.0009493631766779,0.0094350982045866,0.0144883661625203,0.0132981355586371,0.0043589480037799,-0.0034827790419232,-0.008310183775225,-0.0109326983032372,-0.0102648820695497,-0.0062477192474403,-1.983204806858224e-05,0.0063040953502281,0.0102933375478646,0.0101628245743946,0.0105483303469238,0.0031720230344566,-0.0067130145407608,-0.0138854877175377,-0.0137720815884016,-0.0086792449144866,-0.0004125289410429,0.0078430249869332,0.0128253376839558,0.0126107352431683,0.0074550771441836,-0.0003610359783587,-0.0075953353101189,-0.0114659739955944,-0.0107479814953695,-0.0060999910352032,0.0004037853545646,0.0062216092846315,0.0093323215552173,0.008896501994652,0.0054064510837758,0.000345707336009,-0.0044551001480868,-0.0074899024853379,-0.0080134670708016,-0.0036296219393451,-0.0001312486361135,0.0012782604228,0.0043574016065946,0.0057105029608289,0.0050336216946231,0.0026775345083412,-0.0004685241889773,-0.0032837545750456,-0.0048330965295349,-0.0047084665706975,-0.0031323803983209,-0.0007973609680075,0.0014561734819708,0.005449864690054,0.0033261925180544,0.0025856973851548,0.001075329748168,-0.0006308107102969,-0.0019705070640968,-0.0026117669525547,-0.0025221821717561,-0.0018766835459227,-0.0009010079445176,0.0002186361879089,0.0013121892801709,0.0021601496973706,0.0024933371998771,0.0020942937858824,0.0009441904179524,0.0018016733405275,-0.0023686150148298,-0.0035463168506253,-0.003782867215676,-0.0028433731350924,-0.0008677158466038,0.0015725366038518,0.0036165154588862,0.0044380660761545,0.0036226406044023,0.0014024287493062,-0.0013977904695074,-0.0036973237417535,-0.004611045724002,-0.0037964513572704,-0.0015601917115941,0.0012757968507585,0.0036619663912541,0.0046698666852906,0.0038286949770909,0.0013606274346877,-0.001806216139254,-0.0043331234436476,-0.0050208861858991,-0.0033927553742733,-1.7244564200516e-05,0.0036327735247719,0.0057812948949408,0.00518479134325,0.001831450700371,-0.0028709349028682,-0.0066191462269455,-0.0073145384833255,-0.004234012436262,0.0013963758155622,0.0068620356788631,0.0093171042925221,0.0073184486261148,0.0016452308036831,-0.0050769026440294,-0.0097044910278941,-0.0100934556874231,-0.0060389294607799,0.0007198268161436,0.0073116639014601,0.0109488134844296,0.0100559535758225,0.0049097264892096,-0.0024333353411837,-0.0089150008908875,-0.0117156194249708,-0.0095011506105527,-0.0031227890311682,0.0046434822949812,0.0103086215487998,0.0113073976821935,0.0072475682604342,0.0001114617302169,-0.0067235778100122,-0.0101571567627391,-0.0088577631779088,-0.0037933788300467,0.002432674719168,0.0069933813740249,0.0081733052591426,0.0059533681556378,0.0016918309345698,-0.0027425807374111,-0.0058368069279611,-0.0069093398013482,-0.0061200474466718,-0.0041601006775821,0.0055308836871716,0.0097621173773963,0.0104060574948659,0.0020530045143575,-0.0030508489032918,-0.0060845411448385,-0.0077936394452969,-0.0067552064618514,-0.0028242275663813,0.002585285905902,0.0071066284609279,0.0086199421980798,0.0063850013333971,0.0014562135636768,-0.0038647192361295,-0.0072207744020416,-0.007353800800328,-0.0045954983896682,-0.0004942790170111,0.0031139057313818,0.0050059284972692,0.0049627799315708,0.0035522504788949,0.0015831777276869,-0.0003554191238394,-0.0020148545734506,,,
-0.0017102787886471,-0.0116749341490948,-0.0168754862250255,-0.0154448710472653,-0.008193375869668,0.0018155296502532,0.0106141662784088,0.014983200496798,0.0136615314294311,0.0076267473928547,-0.0005585283440939,-0.0079113054226174,-0.0121245611034746,-0.0121780376461089,-0.0083876356912329,-0.0020961413164245,0.0047503106516818,0.0100487635457595,0.0120502874327529,0.0099277397512917,0.0042180895421488,-0.0031500127890266,-0.0094295854059406,-0.0121201674516894,-0.0100892594838851,-0.0041769871840386,0.0031006250558551,0.008674241111128,0.0103256090994658,0.0076628891766726,0.0046794890758336,-0.0035976322711725,-0.0073348141184514,-0.0078315739766628,-0.0053472861670379,-0.0013071576933704,0.0024349415333275,0.0044352130044937,0.0042288216936551,0.0023990363965575,0.0001527100266844,-0.0013558355820802,-0.001594660961665,-0.0008327068283637,0.0001347471904931,0.0005244442387697,4.109515986267633e-05,-0.0009776080995679,-0.0018024939405942,-0.0017701181240508,-0.0006830890342732,0.0010590657227072,0.0026521397765079,0.0032919456427834,0.002582032589368,0.0007386610178952,-0.0015061506383378,-0.0032430086334239,-0.0037838863742025,-0.0029317516254579,-0.0010246123828581,0.0012265334956586,0.0030148286792827,0.0037235474968151,0.0031326925530659,0.001486354514078,-0.0006044955763233,-0.0023978377075814,-0.0033044237249742,-0.0030925124336722,-0.0019244087054971,-0.0002344336351205,0.0014567858518608,0.0026884700050116,0.0031287126022886,0.0026077557389709,0.0011772290216237,-0.0008082391348698,-0.0026849167466282,-0.003660692568402,-0.0031740843490413,-0.0012540742165055,0.001362243366013,0.0034885082292248,0.0040434733354388,0.0026325751264993,-0.0001627857187437,-0.0029863280482136,-0.0043509563202165,-0.0034276208620904,-0.0005610510749291,0.0028094048465696,0.0048510086638361,0.0043289103583349,0.001340476554341,-0.0026566143289138,-0.0055769125250061,-0.0058022090740504,-0.0030355591674508,0.0015246124111633,0.0057429183566813,0.0075406175011326,0.0058694570623418,0.0012494763768641,-0.004370469314952,-0.0084146560420279,-0.0088495429535128,-0.0052103305217372,0.0010453478026587,0.007122779668825,0.0101986280899263,0.008802493803518,0.0035400154198241,-0.0032195876939877,-0.0085022234851199,-0.0101148021307421,-0.0075710113956958,-0.0021609234949598,0.003771036670278,0.0079074644719387,0.0088714075203873,0.006618456086907,0.0022494912026286,-0.002562330164737,-0.0062266917159714,-0.0077151181790292,-0.0067509455965423,-0.0037487583119838,0.0003812582255181,0.0044680947266461,0.0073278537793886,0.0080384896857477,0.0062124113366921,0.0021495665092982,-0.0032649834953934,-0.0089154138257464,-0.0138222312633859,-0.0074630715317763,0.0032297735305478,0.0061999116750356,0.0104356925261287,0.00747828604449,0.0006791015186708,-0.0014087770341188,-0.0012372049859499,-0.0050045058022546,-0.0057479760806916,-0.004097255912286,-0.0016365477089184,0.0012587027414045,0.0054167279435266,0.0041090467879552,0.0011505204793513,0.0035984583339537,0.0003360496252684,-0.0028704556261778,-0.0028038604545936,-0.0019626368761881,-0.0007811485002934,-0.0046988183097447,-0.0042050625151965,0.0033164980316554,0.0081038312265408,0.0054529352792069,0.0045183370334482,0.0002499396682122,-0.0046512637911746,-0.0090187341953786,-0.0095645490925418,-0.0034024367235205,0.0039226262387991,0.0112977187048652,0.0098747737639201,0.0061096190483051,-0.0016704532334768,-0.007223218489197,-0.010887875108961,-0.0093904998999267,-0.0032664660380316,0.0033653816578528,0.0105217922641715,0.0121210699334967,0.0078209562087935,-0.0011965496622834,-0.0079515020350457,-0.0104410227481724,-0.0075043185610857,-0.0040043789728021,0.0013944350798435,0.0044406977477579,0.0082223947841848,0.0089487268028338,0.0064854169718513,0.001086254555388,-0.0084953929681197,-0.0134548486073268,-0.0047615355721539,-0.0030727695906499,0.001585539807102,-0.0016300968543476,0.0099237081351011,0.015638073596971,0.0106205671952554,-0.0020112637761156,-0.0108970931457415,-0.01451433052983,-0.0143211583880148,-0.0083763436753278,0.0058570178923318,0.017577090570295,0.0186589399086446,0.0094653993178651,-0.0045820958579911,-0.0100352560342051,-0.0087248802895002,-0.0081202707142307,-0.0068346719283385,-0.0097104808559033,0.0024604791606672,0.0174609659135405,0.017590848917036,0.0053919610673875,0.0033450451494571,-0.0058869608048919,-0.0129483575515582,-0.0150341372558621,-0.0096092715925609,0.0012000086632178,0.004134541155425,0.0078618931801183,0.0150087095395109,0.0126759987893375,0.006758717156112,-0.0104457976896594,-0.0165263811158559,-0.0085340064568781,-0.006630777002921,-0.0042193040990295,0.0006940445098196,0.0136535535166052,0.0189540138561607,0.0053603450659494,-0.0067944101277086,-0.0021176415224566,-0.0076758530511037,-0.0050886777049435,-0.0093482290541157,-0.004388630559171,0.0044371116297116,0.0086502840784846,0.0070627067723589,0.0070173775337761,0.0031891933007232,-0.0052544996677111,-0.0006270639728734,-0.0066469556490807,-0.0134946577811016,-0.0083084202683413,0.003381352223458,0.0102094134949753,0.0147667347217743,0.0097691197268971,0.0054302209293771,-0.0065880418070939,-0.0193909408364485,-0.0179266544352939,-0.0006805367175147,0.0078739119832648,0.0102451957526379,0.0111130151239567,0.00752135616656,-0.0021242957153218,-0.0058520633163568,-0.0054419741533583,-0.006658369781304,-0.0081069200676756,0.0049937534762512,0.0053018350780837,-0.0053422220415251,0.0080612727092547,0.0072836580420721,0.0019597638681484,-0.0008270220960446,-0.0029226457984873,-0.0069016515737337,-0.0051232202073473,-0.0028970742202919,0.0027709970253769,0.0030988190117729,0.0030764097756999,-0.0002578030477074,0.0016750854976092,0.0080969641964608,0.004377285767994,-0.0064202378095118,-0.0107813127886226,-0.0043289477110563,-0.0047143258948087,0.001126719958376,0.0055506948244751,0.0094933700399574,0.0062360510717473,0.0010854794156299,0.0007142837963896,-0.0043848593840569,-0.0104687220760146,-0.006305386389852,-0.0056577640372811,0.0012251505069306,0.0083070028719316,0.0118606041917375,0.0079099135077819,-0.0011279337935748,-0.0022690220249498,-0.0054156303411755,-0.0090383043124154,-0.0126595612386447,-0.0022626789767415,0.0133317468850032,0.0104463198383867,-0.0022902138584314,-0.0029201517856585,0.0103777495864038,0.0061550212632716,-0.0036727704471178,-0.0138213651915814,-0.0129951810683612,-0.0052729093877718,0.0026340347406248,0.0115497088243649,0.0124808655835589,0.0065293663064988,0.0015238386417529,-0.0008726740342465,-0.0123132613933356,-0.0107223334143491,-0.0048213914655786,0.0022613485177243,0.0030246806076229,0.0064631047581092,0.0059873919477436,0.0042954182594778,0.0037638866053034,-0.0048950875671424,-0.0080993022803136,-0.0089059127755777,-0.0021656356774196,0.0070498016064909,0.0052849231679994,0.0076237249996406,0.0016372404115782,-0.0073848294100459,-0.0072894271148142,-0.0045878854246183,-0.0006665073806118,0.0064444054956664,0.0081695719057718,0.0093212709711579,-0.0003673269238727,-0.0115463192556605,-0.0083669760973999,-0.0014172357521911,-0.0006100488023955,0.0007384856416053,0.0021339553134295,0.0071346249233895,0.0060667171385109,0.0005299360213644,0.0017442165256302,-0.0026804968112851,-0.0083858903118758,-0.0071121766036089,-0.0042838316484086,0.0043929554505012,0.0062635359881127,0.0037254934009529,0.0020698382231322,0.0013439653193156,-0.0010073370924923,-0.0005729221981812,-0.0035373283546137,-0.0007177916506624,0.000211010216748,-0.0004137110585983,-0.0018076507015812,-0.0029813563840551,-0.0005583273314272,0.0031865100582065,0.0029283092245624,0.0018511512668546,0.0033865949734275,0.0041199468612204,-0.0025824044971154,-0.0024246954681067,-0.0048513392946394,-0.0052117188583983,-0.0055387328404672,-0.0022698124029528,0.0041388884425328,0.0062181420555859,0.0093712259729648,0.008189185678957,0.0034962026365249,-0.0029559114503945,-0.0089546301554189,-0.0123037236612647,-0.0114056865528159,-0.0059281227920916,0.0027142711318262,0.0114712781099141,0.0166129715145746,0.0153305184202633,0.0072826166813505,-0.0048018804163183,-0.0160005763288862,-0.0213088131723203,-0.0155155245307163,-0.0046642783277027,0.0092016779174957,0.0175130304956808,0.0204711214148479,0.0142825606401668,0.0017272769501754,-0.0091686845852348,-0.0176847503056994,-0.0204425010188871,-0.0127039637745024,-0.0004683164177133,0.011196698419393,0.0177643326963156,0.0169822358212718,0.012092367324807,-0.0011960123968542,-0.0111329998509683,-0.0165690089553448,-0.0157194383955051,-0.00917318134378,0.0004763503002786,0.0096599035239544,0.0151042460599187,0.0149376025740524,0.0093152967064537,0.0003676131435185,-0.0085672066065667,-0.0142055415235703,-0.0145831222496354,-0.0097547267874368,-0.0016325186518458,0.006868084442905,0.0129000339210155,0.0145468664290875,0.0112999271589819,0.004155878487685,-0.0046368426171528,-0.0121724301774035,-0.0157553258673323,-0.0138422452015992,-0.0067406575729416,0.0032691967606452,0.0125748344219693,0.0175219062019912,0.0159041579012761,0.0080156893423493,-0.0032650799948953,-0.0135070731818401,-0.0185242795829296,-0.0161920324495662,-0.0074365779018883,0.0041226307232714,0.0137485412179339,0.0176324861960326,0.0144564967288658,0.0058145439951445,-0.0045972546942058,-0.0125919142673771,-0.0151985218789284,-0.0117758549616463,-0.0041170803923295,0.0044437281906384,0.0104983519850361,0.0119523961078603,0.0087470431584505,0.0026593484432317,-0.0036361480209998,-0.00774679720287,-0.0084505790907328,-0.005986601613173,-0.0017472380938949,0.0024102142581563,0.0049365699573817,0.0051681668641353,0.0034969838154127,0.00105697566968,-0.0009349893101941,-0.0018290795597284,-0.0017864960772928,-0.0014657521207,-0.0014006822833346,-0.0015548058614536,-0.0013929524598443,-0.0004006705743024,0.0013652716918376,0.0031357774394268,0.003836096573543,0.0027829156869349,0.000208619326679,-0.0027401658851166,-0.0045587428560046,-0.0042035098323166,-0.0017285119993734,0.0016401579313045,0.00410375106022,0.0042929631815092,0.0021020025490848,-0.0011918876594449,-0.0036552219651987,,,,
0.0062496912208881,0.0059362612378483,0.0035152306902837,-0.0001409580099438,-0.0037884659912502,-0.0062077607915942,-0.0065120138044755,-0.0043927302693454,-0.0003426523918541,0.0042658550598141,0.0074979867657885,0.0076681974276368,0.0043276625272318,-0.0012237212626479,-0.0064050572011304,-0.0086713047244735,-0.0069073794664548,-0.0020276383327063,0.0035646539888336,0.0072783743485386,0.0076103474798752,0.0047289999799055,0.0001759945690639,-0.0040145572965058,-0.0062528903394774,-0.0059531440729108,-0.0035618946187929,-0.0001790295959337,0.0029613294748723,0.0049060836850417,0.0051871170773958,0.0038428958668873,0.0013365099570631,-0.0015804207432071,-0.0040464997738879,-0.0053012076518687,-0.0048926250123504,-0.0028318883244393,0.0003509858585237,0.0036842698120644,0.0059901703114605,0.0062717693772005,0.0041594008124441,0.0002202265573129,-0.0040953098990057,-0.0069730311223546,-0.0070639456932901,-0.0042129572966485,0.0003643477620845,0.0046362114915056,0.0067704524904334,0.0060310996470831,0.0030447443647139,-0.0006694876173763,-0.0035612366352336,-0.0047632111163261,-0.0042885216055824,-0.0027225005399041,-0.0007345774508468,0.0012241600228596,0.0028934259147562,0.0039889956024202,0.0040857182753704,0.002790765894696,0.0001396162076662,-0.0030943563148628,-0.0055136427831525,-0.0057250307061803,-0.0031962911662911,0.0011959370376776,0.0053811577924164,0.0071027031199739,0.0052146560791114,0.0004836784315157,-0.0046724759750996,-0.007453346694634,-0.0062552843943369,-0.0016330657059473,0.003951789292087,0.0074804375499891,0.0070468612754094,0.0028798967673888,-0.002840428471509,-0.0071956815269187,-0.0080351978476857,-0.0049783530727699,0.0005111866585232,0.0058982225496618,0.0087519645050429,0.0077816069086325,0.0033312487013911,-0.0027952058826181,-0.0080539438802234,-0.0101501364547697,-0.0079687678194381,-0.0021261192905516,0.0051151882980799,0.0106509236518534,0.0118436377978194,0.0078018465138653,-2.0802368717426025e-05,-0.0083113113254691,-0.0133331270279523,-0.0126528005771628,-0.0063186469642117,0.0030803123010863,0.0115055113692112,0.0152189994465289,0.0124284697098583,0.0041198492184003,-0.0062905203748714,-0.0143629347249888,-0.0165251661688045,-0.0116428530244094,-0.0015796556518417,0.0095177476699909,0.0169276836061746,0.0173501062017016,0.0103632343799618,-0.0012841656728283,-0.0127234914012888,-0.0189967689840807,-0.0172477869083446,-0.008090759700815,0.0045511889579426,0.0151699634476705,0.0192001427519444,0.0151154702521307,0.0050295211853798,-0.0064765295851289,-0.0146205110083733,-0.0165723072930732,-0.0124786888969673,-0.0025725601354702,0.0017222156649052,0.0118902777266017,0.0162668725852435,0.0152968797758044,0.003492408955752,-0.0067548006119662,-0.0127637409415825,-0.0067982114558588,-0.0092865264510278,-0.0083047359568141,-0.0007161421912069,0.0056192536972378,0.0102027525741042,0.0132494059944246,0.008908061546466,0.0054822189393046,-0.0044932984338638,-0.0132882316560095,-0.0138265491545439,-0.0127819270449939,-0.004147265652401,0.0048879673260528,0.0137933412390901,0.016067702956551,0.0111070764676132,0.0025940562587395,-0.0071592510554548,-0.0131057072425293,-0.0105060343124578,-0.0084100023372368,-0.0023882355020278,0.0008730420730256,0.0085008570913463,0.0136804883631156,0.0103209364018882,0.0040330003341036,-0.0010326435281093,-0.0098352637489894,-0.0181893392752172,-0.0087178089262903,0.0006953012746063,0.0082392068881727,0.0097562355285529,0.0063311029129573,0.0029100512516716,0.0004065495645405,-0.0022065258618052,-0.0040783691647084,-0.0053414540377569,-0.0044688745441184,-0.0022417422395945,0.0010412694981553,0.0012669742633418,0.0044581290149162,0.0045064786619258,0.0040456426143465,3.581724725535699e-05,0.0010002023437451,-0.0017272965234232,-0.0037804026438864,-0.007243017215656,-0.0032333555055115,-0.0046211701518975,-0.0003060309607132,0.0071221070783969,0.0079883271041372,0.0087829030292063,0.0068268331354273,0.0015246323674557,-0.0075276738136684,-0.0159006459250262,-0.0095247314956817,-0.0077609891930243,-0.0017786796539499,0.0070031749513565,0.015628737182582,0.0175984084611773,0.0091694766562523,0.002269391937553,-0.0062024309112086,-0.0189593989655902,-0.0233348418268731,-0.0164904187295617,-0.0001699672710532,0.017093720923765,0.021575101805104,0.0251068838339366,0.0123906236395079,-0.0072290339601907,-0.0197555061747752,-0.0204797635171785,-0.0159584937879214,-0.0082079345835951,0.0049027760226287,0.0162184527651131,0.0187692056623727,0.0142540647988787,0.0067051698071567,-0.0096998614773595,-0.010265839188154,-0.016516829044613,-0.0114454537038307,-0.0032506265576485,0.0063319021106806,0.0172131419415787,0.0113005673229605,-0.0006363743891169,-0.007901617776095,0.0014828885496923,0.0010148671144853,-0.0039056368230452,-0.008493184468975,-0.0057971638196749,0.0062734886842486,0.0059428575595537,-0.0016834200344168,0.0007252403902707,0.0041988925249926,0.0042315419757808,-0.0015820972278782,-0.0044665059399115,-0.0059561766441031,-0.0020571555378094,0.002219063119805,0.0052890732444327,0.0013224888759978,-0.0039205925570591,0.000111023891575,0.0036831763605236,-0.0010255925329457,-0.0005447080866922,-0.0061794333453122,-0.0018395045103063,0.0119525121837252,0.0086403936448864,-0.0019499560479467,-0.0078433385439495,-0.0204086360490398,-0.0038465922722544,0.0077952473996271,0.0113061462962055,0.0156926440598038,0.0090619195381023,-0.0042297995314085,-0.0181018434186826,-0.0163981715293865,0.000392729380195,0.0074800730244921,0.0041970036378528,0.0023629303774767,0.003903453407121,0.0003078786427883,0.000299983606133,0.0012461936967061,0.0041256020916423,-0.0010759806221679,-0.002748294416657,-0.0088031996092095,-0.0146535082011208,-0.0001039676856789,0.0062405008159729,0.0144968372656373,0.0112114423318694,0.00747073161892,-0.0019080873399359,-0.0116091808856699,-0.015672421892085,-0.0095573457235968,-0.0016149478399981,0.0086690201147136,0.0125485110849458,0.0095114920069343,0.0015407131255444,-0.0050529924485001,-0.0061718810915323,-0.0001126173619037,-0.0044105703578851,-0.0044914995309937,-0.0029162905548017,0.005189037887589,0.0095000556317276,0.0027489252378214,0.0007321672502104,-0.0032465272932314,-0.0079966391424933,-0.0026090145381507,0.0011734481700828,0.0002305889001113,0.0052931968957477,0.0035041935893432,0.0023097490425119,-0.001803630244268,-0.0019281450471169,-0.0040673270868872,-0.0057130823877702,-0.0010486562237615,0.0027042351186298,0.0039188704696013,0.0067770882894793,0.005042353527601,-0.0020066079100093,-0.0053509424160382,-0.0043552051219584,-0.0067419432477249,-0.0015206160650784,0.0023206832597524,0.0039468402438087,0.0059138087217402,0.0067679922469908,0.0031709574705291,-0.0034701382972968,-0.0074418839641544,-0.0085137692679324,-0.0049583684420722,3.664579410122824e-05,0.002497522075327,0.0083656824522188,0.0091392768293932,0.0070570674244895,7.665141635815854e-05,-0.0079276474234596,-0.010275505917907,-0.0078465796382864,-0.0026861037390597,0.0021466742350444,0.0048882728220634,0.0059341284487804,0.0067563571606285,0.0049183636076664,0.001412884053583,-0.002455932091362,-0.0055834926430004,-0.0072373674305108,-0.006985520357284,-0.0046535656538628,-0.0004909306759134,0.0045652218584234,0.0088640054582929,0.010518121317879,0.0082957597380129,0.0024565419330062,-0.0050376122834215,-0.0112001828086731,-0.0133232995963901,-0.0102541335239558,-0.0029931190896104,0.0056755384015268,0.0123330298396447,0.0143302628923334,0.0108548949099942,0.0032468646054954,-0.0055414934137522,-0.0121231057394246,-0.0140261945572559,-0.0106572665736101,-0.0034634927267057,0.0047399656936709,0.010899154034459,0.0127679732521471,0.0095251518853944,0.0019528178949935,-0.002802250051542,-0.0040606037834239,-0.0084655104610647,-0.011828109526225,-0.009865037136231,-0.0024455196052679,0.0071044235190455,0.0130468249002704,0.0134988663663877,0.0086250530256691,0.0005676982130373,-0.0074064525076135,-0.012218913963928,-0.0121945732887703,-0.0076441267137579,-0.0005761974016797,0.006259430369437,0.010483450498945,0.0108572450305067,0.0075063683261616,0.001697266321906,-0.0046173675361199,-0.0093356214902988,-0.0107772775871283,-0.0082460546540354,-0.0024365151621697,0.0045705050275577,0.0099342539693388,0.0112262415074997,0.0076648411024695,0.0007063087416043,-0.0064872991014759,-0.0105566656815419,-0.0096523912111251,-0.0043808034312634,0.0025507854213365,0.0077738453790393,0.0089669798068343,0.0059219522983625,0.0004700658205204,-0.0045954326036583,-0.0069684701926994,-0.0058893539273247,-0.0023202178486035,0.0017564211534243,0.0044509354807529,0.0048570219089005,0.0032812163382026,0.0008024584879777,-0.0014553541876648,-0.0028487237970491,-0.0032808967757562,-0.0029214860812303,-0.001907725390184,-0.0002885099111087,0.0017753716214923,0.0037710214616041,0.0048339819714175,0.0041219951845155,0.0014031374065525,-0.002538286200034,-0.0060448873306565,-0.0073194534373395,-0.005388674571443,-0.0007496748247642,0.0047001851058493,0.0084697964838459,0.0086509487616827,0.0049018490604194,-0.0012610240024143,-0.0070690453478052,-0.0097894225256506,-0.0080906510813137,-0.002755871882688,0.003687952239541,0.0082499942238044,0.00895993797992,0.0057594238525121,0.0003798867870053,-0.0046427378980767,-0.007234902238185,-0.0066654549261928,-0.0036455108292199,0.0002735767275803,0.0035471797569334,0.0052280245035701,0.0050869516698125,0.0034097519058563,0.0007603991798215,-0.0021295667339216,-0.0044086612275996,-0.0052505822979908,-0.0041628646703664,-0.0013342245465571,0.0022347527813652,0.0050235214068791,0.0056742167038554,0.0037419491674022,5.706178373107161e-05,-0.0035949044222797,-0.0053768769399868,-0.0044049060221856,-0.0012602964404174,0.002319115695497,0.0044056915416313,0.0039444732933987,0.001302693028115,-0.0019801600760805,-0.0040622597628984,-0.0037885441252535,-0.0012800837900428,0.0021485213342706,0.0046678857399779,0.0048565853890843,0.0024231047296072,-0.0016050212122288,-0.0053103551197464,-0.006757270631862,-0.0049453855585089,-0.0004165267630251,0.0048288652235756,,,,
0.006256313900098,0.0062505990322522,0.0031223223977632,-0.0015970876157723,-0.0056250680368857,-0.0071021750344708,-0.0054247210258123,-0.0013790704345232,0.0033264792747416,0.0067818570385024,0.0075485602302628,0.0051580101206632,0.0003627790337991,-0.004993815373937,-0.0085996838859153,-0.0086607450219683,-0.004822716211141,0.0014900780585531,0.0075827056078788,0.010661162776759,0.0091289887096697,0.0033988865709276,-0.0041760730458622,-0.0102655969837562,-0.0120345081733528,-0.0084762974111368,-0.0009725604032433,0.0072312877477729,0.0124427609356209,0.0122106036552631,0.0065067989270617,-0.0021840601796097,-0.0099671055670358,-0.0133409880657632,-0.0108283202627501,-0.0036280330950632,0.0050057843543892,0.0113037543660493,0.0126631154482214,0.008699696980732,0.0012687134456621,-0.006447670630522,-0.0113137252310781,-0.0114864907756488,-0.0070711382134216,1.6528144461831852e-05,0.0068832371090309,0.010836799554587,0.0104366133492518,0.0060070731326354,-0.000567697664894,-0.0066587558412318,-0.0099668691085992,-0.0094043338093139,-0.0054233993502781,0.0003025436996903,0.0056297548914485,0.0087481032409137,0.0087293171194842,0.00571479983839,0.0007948364170261,-0.0043396458137293,-0.0079153208288433,-0.0086733615418826,-0.0063538710987544,-0.0018278057176558,0.0032418903922417,0.0070707232333578,0.0084191238481774,0.0069537506181847,0.0032287899152261,-0.0015758595769803,-0.0059887760038768,-0.0085932503813004,-0.0084062725302422,-0.005252031996946,2.875690177577284e-05,0.0057107542137804,0.0097012201660074,0.0103017222747388,0.0069449880980381,0.0005980749953503,-0.0064176332302561,-0.0112489545297945,-0.0117250919894744,-0.0074220846007836,6.831857017022976e-06,0.0074924375624466,0.0119176170156962,0.011507693178518,0.0065665137824857,-0.0007432978697541,-0.0074045978478814,-0.0108435020655121,-0.0099577449972239,-0.0054625449178261,0.0005590497457505,0.0056669126970483,0.0081429887350202,0.0076108606600265,0.0049145149700089,0.0014090994153381,-0.0018240528500449,-0.00431829856737,-0.0059801993867156,-0.0066050189482641,-0.0056734786531084,-0.0027027866252591,0.0020593067211086,0.0071625117321263,0.0102257970593072,0.0090282372790212,0.0053920791242925,-0.0016299712537401,-0.0107927263879529,-0.0132971699136863,-0.0117729080079736,-0.0041397760566982,0.0064581425134219,0.0130471642885628,0.0119770113301264,0.0092751273392211,0.0017933539431658,-0.0066934708448733,-0.0123540577474751,-0.0131408419649658,-0.007105924460823,0.0005215498532284,0.0115401297971515,0.0141145789108277,0.0079346397146718,-3.5653437778469304e-05,-0.0070322818002567,-0.0082859772941621,-0.0080858055487752,-0.0028574900147361,0.0023116021522366,0.0076080894136635,0.0071070378603209,0.0040175721270724,-0.0024134451332554,-0.0054038693786479,-0.0065162644361569,-0.0060010353803413,0.0023334016470825,0.0075140964756947,0.0062139846050001,0.0033332418886803,-0.0002091334975448,-0.0029281102584133,-0.0058894641371831,-0.0062902994492668,-0.0045277920235093,0.0002222336522427,0.0037459871114272,0.0069310535758215,0.0068293614527003,0.0086604959917237,0.0018820424827384,-0.006515456916668,-0.0122269032335688,-0.0088725993407606,-0.0089272135674479,-0.0017320277063665,0.0075994738963449,0.0166984301683149,0.0144373078543966,0.0059540490364079,-0.0042809831319931,-0.0108343648888122,-0.0136341530100668,-0.0113601967702924,-0.0053066528073081,0.0041948224185552,0.0111417126170362,0.0130227925745219,0.009442209921427,0.0022340715686081,-0.0055216455735114,-0.0110293215187989,-0.0080889262228092,-0.0045108465974325,0.0002991817982992,0.0022745305333012,0.0053548233169586,0.0074644056361214,0.004138706621567,0.0006461615163445,-0.00617953545118,-0.0047613677062123,-0.0025088004344287,0.0017241721868916,0.0021294650301113,-0.0025936612751437,0.000118398500024,0.0018846020801318,0.0037550485312886,0.0019351285390073,0.0009626654460659,-0.0034557966879343,-0.0052081163104676,-0.003021095799512,0.0012763030458334,-0.0005137223701316,0.0024299722895461,0.0062890091827847,0.0058390757880859,-0.0007780624319314,-0.005334013705984,-0.0015757560801274,-0.0036941401456615,-0.0074235566986487,-0.0016886287853561,0.0025424361434123,0.0052128204501498,0.0093529535217537,0.0066530741696566,0.000951821114899,-0.0049534657250725,-0.0087772407465767,-0.0068907080757461,-0.0031286380624886,-0.0007864446750294,0.0024398027061467,0.0072941436133154,0.0072300810558283,0.0026691027875673,-0.0016547799082276,-0.0011572385321948,-0.0031109869875199,-0.0047674279914198,-0.0004942678610638,-0.0002218838153789,-0.0020177979070192,-0.0026389064704741,-0.0005105836382457,0.0064336634573606,0.0071670041440804,0.005637401653508,-0.0017401378910981,-0.0043553994379866,-0.0044896932709507,-0.0055299554644621,-0.0063241524696383,-0.0007715404091131,0.0079075310852857,0.0078181245670676,0.0044816912387921,-0.0010326619094844,-0.0033862398082924,-0.0044233377708078,-0.0020498569723667,-0.0018718701687532,0.0027601804573455,0.0012915560319544,0.0012057249592413,0.0004532779960179,-0.0003855293056644,-0.000980474502098,-0.0013850492238525,-0.0018470325314918,0.0023921855384135,0.0016094707702988,0.0033765787874425,0.0003252531569885,5.258777017176255e-05,-0.0046872685034193,-0.0038433411600116,-0.0021052495522399,0.0003898995740693,0.0029345140621345,0.0043974311825564,0.003745931997731,0.0031493346136358,-0.0017377489645121,-0.0070003676153558,-0.0061487919743823,-0.0031047996813787,0.0048874631090397,0.0068141724468502,0.0036704389198445,0.0017677804151909,-0.0033059313778213,-0.005527653493484,-0.0055679338964423,-0.0032455617769749,0.0026561469064915,0.007007670452216,0.0098400922728581,0.0028489496512091,4.8261299925584935e-05,-0.0048791618400305,-0.0108968271726762,-0.0109836180825435,-0.0060464132139884,0.0035701639524997,0.0115066359133795,0.0145897728301813,0.0115851616072107,0.0036650107216085,-0.0060596260756795,-0.0137456209277844,-0.0162900885380147,-0.0125141123886054,-0.0036371901845221,0.0071100440138883,0.015606599589734,0.0183530167534951,0.0138930003199748,0.0036041506219436,-0.0085877558623329,-0.0176659957993159,-0.0196794607990039,-0.013626396231069,-0.0020522421271171,0.0100626548047533,0.0176162389459897,0.0201880168513839,0.0106598712059575,-0.0002298742918516,-0.0104565549354841,-0.0161224720660493,-0.0154203447905676,-0.0091113071574594,2.6642679085529458e-05,0.0109015389239133,0.0129399225847326,0.0121573878878098,0.0066786887625621,-0.0010529157793824,-0.0078316886906128,-0.0110395643468342,-0.0096857179166976,-0.0047075693189168,0.0015513206756484,0.0088958810326537,0.0078730646256117,0.0055153647971597,0.0005176270956735,-0.0022784932557342,-0.003078288241477,-0.0053145781041667,-0.0047275507967795,-0.0004799239007099,0.0028744086285605,0.004014243304759,0.0028856077577797,0.0005615164663718,-0.0014570448752006,-0.0021009922474535,-0.0012696294930992,0.0002387522887155,0.0013126582113245,0.0012389266648811,0.0001082553458597,-0.0012941051737264,-0.00199971537774,-0.0014460068124421,0.0001757594201093,0.0019659352569413,0.0027183530242992,0.0015153732425806,0.0007671480046661,-0.0011985049273814,-0.002559970657585,-0.0019203158549953,-0.0007925966595862,-0.0021383768700803,-3.7721128281261834e-05,0.0036872473791957,0.0029647423231079,0.0025813432489795,0.0007229660877383,-0.0014670714496962,-0.0029565065952663,-0.0032063703265718,-0.0022412783314504,-0.0004969863869484,0.0013927172775279,0.0027775880594219,0.0031529556959206,0.0023284947677623,0.000553129821259,-0.0015107788444991,-0.0030195253392678,-0.0033121300928676,-0.0022273316348109,-0.0001982712437053,0.0019331883764359,0.0032858103689372,0.0033064991447489,0.0019777787042685,-0.0001919242950491,-0.0023613390576056,-0.0036585165960786,-0.0035064407156939,-0.0018732202886136,0.0006594402253301,0.0030788183187882,0.0043417053504809,0.0038336999803095,0.0016682739432229,-0.0013282099642781,-0.0039442297526631,-0.0050764147304955,-0.0041814095275772,-0.0015112457083684,0.001956625389249,0.00487396350756,0.0060308437924036,0.0048259248578516,0.0015307855994195,-0.0027320030417599,-0.0063073161651504,-0.0075890163535485,-0.0057358019575252,-0.001226528295192,0.0041247951534792,0.0103598329024235,0.0080102649013194,0.0041522784194175,0.0003127033365356,-0.0056635178392295,-0.0110284033641767,-0.0094649029424018,-0.0041329599227828,0.0027100762340034,0.0082450902277522,0.0102903221980564,0.0081499144595184,0.0028153927596343,-0.0034896142018256,-0.0082158894052125,-0.0095096032933031,-0.0069629191810773,-0.0017765484654543,0.0037738564889195,0.0073656409857695,0.0076746999289013,0.0049016589454113,0.0005000193324096,-0.0036942123654566,-0.0038671400805909,-0.0022604112771056,-0.0016068540206495,-0.002592635994216,-0.0033381791870821,-0.0012517367182904,0.0012596717936562,0.003917211731992,0.0058911693076498,0.0061259053987905,0.0039800650324345,-0.0002223920219111,-0.005088062630964,-0.0086182950519681,-0.0090686992632694,-0.0058220687258136,0.0001498209790074,0.0065250725312517,0.0105704916281606,0.010411269540196,0.0059985383637633,-0.0007949150586287,-0.0070694043946347,-0.0103054509112305,-0.0094851397053639,-0.0053446966669496,0.0002368893747757,0.005208702394711,0.0081071997409413,0.0083431402809748,0.0061098711400387,0.0021494718818974,-0.0024572539815097,-0.0064542069875048,-0.0086070252857632,-0.0080214111526211,-0.0045583504805394,0.0008596044788294,0.006347319269355,0.0097029496828113,0.0093871621706023,0.005330513314948,-0.000911759554918,-0.0067939483488576,-0.0099076827027561,-0.0090499375374852,-0.004717781744512,0.001186174750291,0.0062585389818321,0.0086441055269691,0.0077316124757635,0.0042239950337827,-0.0003490836842848,-0.0043512351823491,-0.0066312201492324,-0.006798316839591,-0.0052057215764036,-0.0027481507773102,-0.0005202141472023,0.0080023931281815,0.0124287542790778,0.0106152562309841,0.0004550074356473,-0.0075459536395437,-0.0096181374872805,-0.0093364194208647,-0.0061149015282505,-0.0006616103221825,0.0051828639365679,0.0092297156510542,0.0098872318340741,0.0068105860781342,0.0010361974333841,-0.0053773063353836,,,,
-0.0121297648707513,-0.0063616868952725,0.0020337877809771,0.009818931420419,0.0138738266203786,0.0124936753996517,0.0061423615263987,-0.0026852875656955,-0.0104482926136401,-0.0139963308010271,-0.0118828251654613,-0.0050047671040785,0.0037436123033016,0.0107102868112591,0.0130920519168369,0.0101500206422193,0.0034308745124953,-0.0040905482356732,-0.0094436937295148,-0.0108944294853505,-0.0084154104520721,-0.0033433305086566,0.0023974799519576,0.0070261996263733,0.0093176426275542,0.0087161120708447,0.0053392866132501,9.959935069087278e-06,-0.0057439466031812,-0.009933756001673,-0.0107416862945936,-0.0073866659009082,-0.0007644413972389,0.0066334866443112,0.0116744028371802,0.0120291629174282,0.007359525713149,-0.0004217017839795,-0.0079952684073149,-0.0121615886821534,-0.0112748482636264,-0.0058949805342185,0.0015917903331612,0.0081053404171769,0.0111649865468594,0.0097902263544083,0.0047366552451346,-0.0019075446757539,-0.0075567665758855,-0.0100990040040402,-0.0086698239146779,-0.0039447103938746,0.0021597995948695,0.0072464053123627,0.0093566835419336,0.0077137085504706,0.0030247926421181,-0.002782901728628,-0.0073275659391181,-0.0087528154969009,-0.0065093429901066,-0.0015946136144679,0.0038605958766855,0.0075006575537066,0.0077787929224336,0.0046568360168087,-0.0003787236152936,-0.0050165933962098,-0.0071978413081074,-0.0060428747091234,-0.0022048516311498,0.0024725188721225,0.0058062271119072,0.0062608384329342,0.0036585361179381,-0.0007060033408205,-0.0046447027043212,-0.0061375018208069,-0.0043821283020123,-0.0002665897367177,0.0040466859136138,0.0062493494878825,0.0051252415762715,0.0012114344717601,-0.0034829615703582,-0.0065350798049234,-0.0063569849051302,-0.0029771507307146,0.0020091741989602,0.006236898661502,0.0076915727656305,0.0056316488709298,0.0009174584685696,-0.0043800746129147,-0.0079078239438437,-0.0080784339288457,-0.0047697778348689,0.0006291501684486,0.0058326645831226,0.0086493105655381,0.0079130184607653,0.0039602890933391,-0.0015383949304431,-0.0063114512135917,-0.0084589566361252,-0.0072305907487138,-0.0032715455474111,0.0017310373098918,0.0057907354863143,0.0074145652478976,0.0061451284910927,0.0026769880368314,-0.0014761963131993,-0.0046291183631872,-0.0056249451742957,-0.0042972832532193,-0.0015078006915137,0.0012362919745978,0.0024051792778567,0.003530404107483,-0.0004840988138835,-0.0039185026937468,0.0046967800130292,0.0050347534693385,0.0031392247238177,-0.0010033429348856,-0.0035630562559398,-0.0061406726231567,-0.0076815649421944,-0.0016586817517921,0.002533171966605,0.0057952037966478,0.0065410181213467,0.002514124854178,-0.0016253127713128,0.0037555469096419,0.0017503377571479,-0.0069144854086773,-0.0093395477286829,-0.0049051366599217,-0.0006323307800913,0.0054049635516949,0.007474416157152,0.0065905422045825,-0.0005703143078812,-0.0017742297387442,-0.0037261268129955,-0.002761568543993,-0.0008334419048842,-0.0007311571986354,-0.0011353649122792,0.001729953002033,0.0052445622944448,-5.4948328108892015e-05,-0.0034500980118981,-0.0017395818681643,-0.0017739374971675,-0.0013144021932509,0.0043180903048314,0.0077194125474888,0.0018764038017156,-0.0025583744309221,-0.0044708370862716,-0.0060159500323093,-0.0050610619528838,-0.0010666876126234,0.0037641335964654,0.0074816060207269,0.0070829351725317,0.0034602550587655,-0.0013447040051239,-0.0074151867737674,-0.0078785107318595,-0.0046830968059483,0.001012963094246,0.0042134795525064,0.0043688956270661,0.0045590340769907,0.005579099134386,0.0007056367867925,-0.0065184539344643,-0.0084725235187403,-0.0078244381770448,9.106789949897583e-05,0.0085718337119107,0.0066231472688683,0.0047556660344704,0.0068839579210324,-0.0024604156134784,-0.0115265964057868,-0.0124840987493162,-0.0042246639935429,0.0039905985959329,0.0064239085991103,0.0115506822491381,0.0072647346558572,0.001142159001721,-0.001956831083955,-0.0079994697478582,-0.0119041689904375,-0.0081899540944137,-0.0039131787577111,0.0071250694191022,0.0142317784845764,0.0128944990601688,0.005982582241467,-0.0065779809291682,-0.0113985681542672,-0.0103278844422265,-0.0041517915433984,0.0013069677446211,0.0037649441893773,0.0049917043779668,0.0031965640612805,0.0027561164487789,0.0025465727654651,0.0019472130115734,-0.0022553975690416,-0.0042023254311899,-0.0061411834324164,-0.0037465681783515,-0.0002774873193287,0.0032549197183106,0.0034269791123652,0.0022713224264299,0.0020809467989607,0.0009750666012593,0.002091047773459,0.0011725062087887,-0.0041766068299406,-0.0067554254657959,-0.0043787952238804,0.0007953080913615,0.001525390053742,0.0050695984863332,0.003448817546071,0.0035838355420178,0.0025612364460696,-0.0046771039139682,-0.0082309564842037,-0.0028065945075599,0.0023558721148183,0.0026719841427426,0.0034237441064587,0.0023340802487294,-0.000166744017771,-0.0033042769994812,-0.0014614382820778,-0.0021632899008863,-0.0017093066689834,-0.000247021638396,0.0070409476819181,0.0034607045385293,0.0028378960793491,-0.0056263021331627,-0.0065356090290603,-0.0001726257394301,0.0053994060185346,-0.0025320680642638,-0.0052170741412472,-0.00067544713232,0.0054331009416648,0.0105165268913104,0.0033475484053747,-0.0068914766365082,-0.0094905684450856,-0.0031494487247418,0.0019045850578886,0.003711268891098,0.0043888496000997,0.0022091726323317,-0.0039115276446673,-0.0074659688569703,0.0016962653602609,0.0047943320129632,0.0065288825189458,0.0009480574147992,-0.0104146282564415,0.0023442427431884,0.0031008319521159,-0.0020269390608047,-0.0030780319687731,8.807179043847162e-05,-0.0047922195881054,0.000726634136452,0.0032985715385603,0.0064152728636101,0.0082432248588672,0.0036645074332598,-0.0051974645073616,-0.0121266965587111,-0.0092326319009939,-0.0043119885184935,0.0017721211970682,0.0104827569391591,0.0084254596079635,0.0072938372074332,0.0013877509452692,-0.0042549641241912,-0.0073130697102265,-0.0121759384693327,0.0014454155119909,0.005360770098403,0.0025802307161598,0.0030461055994151,-0.0060103800057371,-0.005370483072412,0.0100939538131401,0.0097299668163645,0.0014039092239932,-0.004877741453763,-0.0075350917474677,-0.0100553405592906,0.0013345821740701,0.0067268703774236,-0.0007298439247143,0.0020082582966397,0.0043049673540129,0.0020926292756362,-0.0053703720603894,-0.0026870489869604,0.0060491770647079,0.0054620074482754,-0.0013184603688018,-0.0056086144122226,-0.0111706450705414,-0.0104816622161504,0.0032110796433732,0.0140002819159053,0.0130705964669157,0.0094955527402331,0.0015690636831801,-0.0087219123087112,-0.01627333002739,-0.0148326669145512,-0.0072056139367066,0.0042612853869362,0.0135744841567038,0.017833435561371,0.0137687337898936,0.0029237953780965,-0.0087512145905794,-0.0175452571788153,-0.0162710973885161,-0.0100524030938996,-0.0015738263808997,0.0126861357622829,0.0194981485446426,0.0155542870321029,0.0072025344183285,-0.0043428282365678,-0.0150600114763826,-0.017173875719294,-0.0131304687541538,-0.0029080810761321,0.0068062622098785,0.0145551344561268,0.0132773311566405,0.0084738923576421,0.0007445637227669,-0.0037710762052464,-0.0088122807432689,-0.0128778901688026,-0.0119801788956212,-0.0010389503016999,0.0073215023793172,0.0104822619314906,0.0091926815894179,0.0061179544130735,0.0004557113197691,-0.0051433351987343,-0.0082015652078415,-0.0074902472284882,-0.0035646619011876,0.0015268610413193,0.0052710092927615,0.005963203490736,0.0035556847845013,-0.0003879677818846,-0.0036014085847487,-0.0043668551919771,-0.0024112657687305,0.0010202536524891,0.00390386649685,0.004548788371674,0.0024881909384342,-0.0012825501553459,-0.0048090667370821,-0.0061646704452676,-0.004444871283398,-0.0002822208615436,0.0043955511868453,0.0072814579888203,0.0068496855211307,0.0031747177239841,-0.0020429846287257,-0.0063068488924539,-0.0076014764706004,-0.0054273202150972,-0.0010150631356782,0.0033902280356151,0.0057523527090226,0.005281083975045,0.0027198666443724,-0.0002434933680032,-0.0020688925891863,-0.0022900473701636,-0.00170977324062,-0.0017644347661863,-0.0034730864647878,-0.0017338898796906,0.0023734947548829,0.0034039548209523,0.0045605607969693,0.0004166591089539,-0.0012081955792277,-0.0023702109743556,-0.0014379104867898,0.0045973732886247,0.0010269588690357,-0.0049272291066622,-0.0049785696159754,-0.0044070391363042,0.0019566634209099,0.0065177390762618,0.0073350896294699,0.0042272838536756,-0.0010661560696439,-0.0057306625171077,-0.0073363425217044,-0.0051210820279803,-0.0003745920493871,0.0042940792765487,0.0063855223836885,0.0048370357266529,0.0005486783588092,-0.001636466540496,-0.0042220577772366,-0.0059156918132472,-0.0022682953563254,0.0022109095029432,0.0051550589025997,0.0050690432245165,0.002088142481508,-0.0021235705303719,-0.0052731697571038,-0.0056411498747745,-0.0029562735875421,0.0014751757648576,0.0054149782814494,0.0067934237877688,0.0047565815284663,0.0001596005981095,-0.0047785765914547,-0.0075524132832695,-0.0066653115107796,-0.0024553709341182,0.0030243325843126,0.0070404021516108,0.0075933597034465,0.0044615747036174,-0.0006898527218316,-0.0052095835770171,-0.0068888141333104,-0.0051200309768643,-0.0011276505740179,0.0028339635936578,0.0047944663282188,0.0040949662638825,0.0015712753921071,-0.0011090859425619,-0.0024779128157428,-0.002052125325422,-0.0004774965683545,0.0009797615838844,0.0012606705667303,0.0001769413883965,-0.0014740864817008,-0.002418144718352,-0.0017408490910508,0.0004602284358703,0.0030331294352036,0.0044014684622654,0.0035072408746488,0.0004954322871675,-0.0032819483929014,-0.005945370879066,-0.0035705660731544,-0.0034582109804355,0.0007398516972098,0.0046083285054133,0.0063891234306208,0.005264849863039,0.001718853876355,-0.0026581846551457,-0.0058653419096082,-0.0064139857861657,-0.0040476401108394,0.0001146804892914,0.0041094436212445,0.0060801365741274,0.0051756749286329,0.0019482086306115,-0.0019513950862311,-0.0046309442612873,-0.0049189882941288,-0.0029106003313669,0.0001871810991457,0.002777499483097,0.003716793142231,0.0028194279502349,0.0008138790077346,-0.0011469353165402,-0.0021263982277779,-0.0018882002324626,-0.0010250124086111,-0.0006823622019166,,,
