0.0066527915867339,0.0009582996067205,-0.00133770748024,-0.0044924016579992,-0.0036915672355695,-0.0048104011410405,-0.003772644032189,0.0070593486236022,0.0150139131244093,0.011062573263786,-0.0011630017467062,-0.0095941937400263,-0.0124974501553168,-0.0067417733458063,-0.0077442861834536,0.0037134126283346,0.0101436316123773,0.0101956231090132,0.0040282871908894,0.0019830374063869,-7.113012466373871e-05,-0.0054215998487655,-0.0170151551253175,0.0007273807616072,0.0080150807184439,0.0011936614182496,0.0007187942634216,0.0032420631695862,-0.0018313741241926,-0.0031868779065732,-0.009760737881746,0.0098436425989808,0.0119905442532707,-0.0007542199203927,0.0001893450337193,-0.0033799868351353,-0.005351369556158,-0.0099441275289536,-0.012247799561476,-0.0048369070244698,0.0225005641246691,0.0247892267401843,0.0078964624359884,-0.0052390616625587,-0.0198156531761011,-0.0279367094856374,-0.0009187980841049,0.0115073562931316,0.012970345041973,0.0094821558186429,0.0073799545478843,-0.0007891503127657,-0.009561835275327,-0.0162320797837321,-0.008478280977403,0.0090810060493408,0.0098762133839067,0.0080589223604483,0.0005386639925947,-0.0034327309936438,-0.0063502206175493,0.0017225989394933,-0.0010991649974519,-0.0028844014623224,-0.008618505093104,0.0068456745138235,0.0085850868459149,0.0033940499809197,-0.0056828054697077,-0.0019492243619868,0.0034173745271879,0.0036165054257269,-0.0009094266360404,-0.0117612716424713,-0.0068350206682673,0.0107132253313788,0.0069663903433634,-0.0037734731330854,-0.0086073903118179,0.0047739742705407,0.0087617617315734,0.0062541038662598,-0.0007606007552315,-0.010326719746978,-0.008612157139031,0.0040163650202456,-0.0002388011563525,-0.0076634396504581,-0.0014970047798809,0.0087578495232306,0.010789934832478,0.0105277207709307,0.0038657777753846,-0.0020542994267557,-0.0189331799069503,-0.0169491121704119,-0.0063826279877,0.004047610059767,0.0050785085623941,0.0114375835193092,0.0170391162936815,0.0121650489569993,0.0017100062872906,-0.0098131424501271,-0.0192048176684025,-0.0192910287665689,-0.0098616798188831,0.0020523423610984,0.0127429578662792,0.0184624675269891,0.0170931356626224,0.0091773548918748,-0.0021826336370043,-0.0125360851695048,-0.0178876179658504,-0.0163002227263148,-0.008599750449078,0.0020826551122818,0.0116516773204007,0.0166392490916532,0.0154065888495672,0.0085902776101205,-0.0012357595566538,-0.0104852472135531,-0.0157846363444135,-0.0151650362659421,-0.0088366628425246,0.0008051823958337,0.0100555587472133,0.0153689781477815,0.0147994112173385,0.0087451894547835,-0.0003733735837905,-0.0093823463359312,-0.0159690885606937,-0.0197812314343751,-0.0053196223097876,0.0052754537136031,0.0094911137972843,0.0186723360386693,0.011858846006328,0.0091616837887574,-0.0035074108693737,-0.0188998638151996,-0.0264839930772207,-0.0144535692188675,0.0140767579025682,0.0187732163240359,0.0166152110448562,0.0070735579866039,-0.0029186806309221,-0.009505282169627,-0.0167835651735111,-0.0148372676740875,0.0074200458422609,0.0144948714305214,0.0101723061595085,0.00264944196802,-0.0021948394169509,-0.01579890416596,-0.0061507952410728,0.010979619616658,0.0053598453458498,0.0019142640410578,-0.0029686853441189,-0.0101299246743385,0.0003663147388118,0.0043629452126504,0.0032591464410331,0.0035212280356359,0.0003300990057246,0.0045315713951991,-0.0114547019297665,-0.0131924400506398,0.0116176302756013,0.011189420216614,0.0009493555371556,-0.0140535112988977,-0.008879780542009,0.0102580380189598,0.0158979523235981,0.0078136272975192,-0.0066130584620156,-0.0207247502555057,-0.0486275679323109,0.0434239820275445,0.0599067840160601,0.0054393884375267,-0.0782557460102504,0.015533346485667,0.0111065578218804,-0.0363289306886211,-0.0257209504744128,0.0551599560294378,0.0846005311826856,0.0308723249173939,-0.0519365202833115,-0.1359463483986683,-0.0668895944910504,0.0828175167401747,0.0763813851278493,0.0395746849387885,0.0446916714902769,-0.0250864446042148,-0.0822714502028796,-0.0198663300964505,-0.0462575829681225,0.0027653020993014,0.0562413120189529,0.0350900080955963,0.0244187074524697,0.0190315039636858,-0.0077177575175246,-0.0246624863310298,-0.0559901385219708,-0.107986690121213,0.0418599819582433,0.1045660435691509,0.0865433028660798,0.0130412016924545,-0.0877121062558726,-0.1098247109565134,0.0482089552749115,0.0596980023902934,-0.0150177751667483,-0.0694034690822578,0.0398857583793475,0.0574140969837487,-0.0085237715875887,0.0073513390788902,0.0126549268508484,-0.0141024840838414,-0.0618712189819855,-0.1158649893844296,0.0552684251450273,0.1307079991509942,0.0566021513237731,-0.0037573705081646,-0.0020496926069417,-0.0980240373702233,-0.111030380883174,-0.0202854342880985,0.0239381734201343,0.1361038619645766,0.1235370669505172,0.0884939009253646,-0.1118846479056068,-0.2340750726636764,-0.1700651087148058,0.0267102347526067,0.2935293720299791,0.2207031630808649,0.0034813058122923,-0.1627010450626124,-0.2440878896713932,-0.0998084139102302,0.0781790321920055,0.1664448054682047,0.1226271114226638,0.0186572226224111,-0.0185545307425887,-0.0646583177068567,-0.0479051278656379,-0.1966663018001868,-0.0670861797917421,0.0948879051391788,0.2637554966993911,0.215781256521472,-0.0356578466511982,-0.3226911375121116,-0.1607418131549238,0.0412395082616345,0.0061034771597732,0.1300916688304567,0.106641325592726,0.0497740314818593,-0.0119315279269208,-0.0893309332903936,-0.0991324829456484,-0.0654329866629847,0.0845812089939981,0.1029324816302154,0.0223944162815225,-0.1155283784019394,-0.1308757133345616,0.1395966033287862,0.1445094715106478,0.0351384049516104,-0.0686099520538542,-0.0953642483841375,-0.1427988436799741,0.0065698549814816,0.1153941227374359,0.0680471231801584,0.0324580750784451,-0.0039688489719469,0.0050486568028572,-0.0394248139006597,-0.0331576659693597,-0.0984679997707927,0.021091174070095,0.0620272077257058,0.04264349857619,-0.0089797064535274,0.0107430018300111,0.0159367886053117,-0.0204561365237064,-0.0146013886574441,-0.0034758351974908,-0.0190895911280979,-0.0374800531107236,0.002848126284454,0.0313967240849745,0.0378839762448777,0.021323656331078,0.0088271244569697,-8.738412056770902e-05,-0.0343493218254297,-0.0951263920465926,-0.0017092247872377,0.0841804326433849,0.0587676201375501,-0.0212259090460108,-0.0535020767007562,-0.0214645357325642,0.014151492709747,0.0154467698030524,0.0319440063874766,0.017839831892654,-0.0109671854513822,-0.0428313715087059,-0.0459002752697204,0.0182989325504741,0.0229861676823621,0.006632618202213,0.0359657334725498,0.0140496941196908,-0.0124812149026374,-0.0213407096672832,-0.0229566955549397,-0.0127515015704356,-0.0049288258930208,0.0161666947139784,0.0160661386005045,0.0079701109791686,0.0020760360882138,0.0180276082640611,-9.221753976774172e-05,-0.0209340834094581,-0.0240750537843223,-0.0165855709224396,0.0011132082980823,0.0268820334693914,0.0191005945989583,0.0117792816492968,-0.0154109761326576,0.0026477124605248,-0.0094791425385997,-0.0162823003966134,-0.0010465632824559,0.0022979410629156,0.0090535631796346,0.0090203127431778,-0.0012972306042843,-0.0058844138690857,0.0101809940569288,0.0018708673884855,-0.0162622799391377,-0.0085120530702469,-0.0030934939641616,0.0222103445789857,0.0130786822636962,-0.0044666617020967,-0.0152119916164307,-0.0103157894319827,-0.0099737216778429,0.0059287704922478,0.0194492526172106,0.01265704247907,0.0059384031677612,-0.0099161020100859,-0.0233776525328366,0.0045260161401499,0.0052031489720629,-0.0115275378689498,-0.0036984845613894,0.0072393233339911,0.0119665452384864,0.0067072770025815,0.0062385088006948,0.0022031495426191,-0.0016552118856835,-0.0143815248392406,-0.0309673999493782,0.0013759909273544,0.0136264836385763,0.0137830971292005,0.0118296202173355,0.0032291146356164,-0.0037015023746105,-0.0030381789242377,-0.0055707892194147,-0.0084227940868338,0.0026749970368834,0.0028135253930387,-0.0122927775658924,-0.0067983294270085,0.0133120181640417,0.0139506199776893,0.0019883140567374,0.0061473338948181,-0.0013068920896976,-0.0132459313616676,-0.0080880821305768,-0.0037010518749381,-0.0053639752127942,0.0006979174911142,0.0144317209720445,0.014359107226038,0.0067803583462446,-0.009703064144731,-0.0298129352833931,0.0046180695938075,0.0160580446227789,0.0084790287959229,-0.0028395680756005,-0.0063802345311062,-0.0036739404868019,-0.0028335992084775,-0.0066258075341235,0.0091379826362629,-0.0010532738467123,0.00383385752268,0.0130648772443316,0.0060380501707607,-0.0042565068606173,-0.016246259155205,-0.019715065580746,-0.0037329354588404,0.0091257037597625,0.0198688716480481,0.005661563657453,0.007673698399017,0.0133170425799852,-0.0133252276441293,-0.0415125443956823,-0.0076972828423736,0.0130426961756364,0.0140077953866284,0.0175436403714775,0.0125168160100127,-0.0131899000430537,-0.0102245833429825,-0.0125564326883696,0.0030567662247618,0.0042074523978608,-0.0017103863062549,-0.0035939524947597,0.0069841037030044,0.0140375744373126,0.0074115606520138,-0.0068606826626466,-0.0261056487257361,-0.0120960255346661,0.0121223839813014,0.016885997627122,0.0107454330346264,0.0038741200908196,-0.0052500258898534,-0.0142225296759712,-0.0196022021439007,-0.007380014994986,0.0203874550995689,0.021269659769854,-0.00024275504796,0.0062408823539432,-0.0032907217611848,-0.016535021429373,-0.0127840594779787,-0.0058220600883679,-0.0037922908897017,0.0011005099942922,0.0261342848802482,0.02495757230539,0.0051927153853262,-0.0074372605617352,-0.0292217202002228,-0.0135456086270497,-0.012120769743014,-0.0155077858433904,0.0184705023067766,0.0306770631682901,0.0232629280673735,0.0150993391249754,-0.001449859454695,-0.0273714945809825,-0.0389237512631798,-0.029375594790443,0.0074392119568939,0.026028955579086,0.0338018805836572,0.0184321239455933,-0.0048953497070745,-0.007387966008203,-0.0068195496847201,-0.0126689248184531,-0.0211844040204446,-0.0065722514582934,0.0012666621378158,-0.0050495938582185,0.0256085844603857,0.0391255479477204,0.0162759195847872,-0.013270212499411,-0.0290115328733825,-0.0406546476341573,,,,
0.0287233616339311,0.0231387467444729,0.0019528386213875,-0.0174588748720372,-0.0301475189542727,-0.0145273867396859,0.0059445522478237,0.0027751115961535,0.0310680849519905,0.024581827393245,0.0123256503166648,-0.0144127100129776,-0.0318309310071623,-0.0374973121451057,-0.0044133113219621,0.0208668442412267,0.0324189433333939,0.0115167369482583,-0.0019994428379697,0.006075848501738,-0.0097799071200338,-0.0251728553186683,-0.0137907826771429,0.003472038334534,0.0079535802591092,0.0082935617664484,0.0138284337580508,0.0144065434119315,0.0004840479641017,-0.0225765983997904,-0.020734895845393,0.0046459638148388,0.0045619136821042,0.007512751718096,0.0045906355550018,0.0042709368043019,7.96734674516181e-05,-0.0060513176851954,-0.0033378893212708,0.000766419235753,0.0044836651881281,0.0023673608092776,0.0004167639629905,-0.0090076216605497,-0.0062979677178522,-0.0085524845674702,0.0118885032632408,0.0123159774086333,0.0069003329986497,0.0034455148613688,-0.0028742780643623,-0.0104875152848015,-0.0158511646407299,-0.0065328735491741,0.0058947164016764,0.0085155134297594,0.0095370727908411,0.0083590815069614,0.0005146273260795,-0.005504695437481,-0.0110635053591302,-0.0027494730441011,0.0031811279526158,0.003950805706199,-0.0041759633669192,-0.010425451539872,0.0045804796394197,0.0131319215879704,0.0077479227161266,-0.0004528821797955,-0.0034239651075235,-0.0066168353567533,-0.0054879099570025,-0.0056740995515325,-0.0033201227166232,0.0029633100881079,0.0071836335268003,0.0085400651215912,0.0068129934626698,0.0025070415237789,-0.0033081480787735,-0.0093983963225706,-0.0147345485548821,-0.0064366986011322,0.0036389269913009,0.0099835602018172,0.0091718023695801,0.0046119250486487,0.0029188697861745,0.00394620389784,-0.0013601079092759,-0.0075341356054822,-0.0172841566492863,-0.0233946281420294,0.0065606852791981,0.0206787928175161,0.0207045564225746,0.0097858656205621,-0.0003123011826385,-0.0100539068642158,-0.0101074236953651,-0.0082738196556971,-0.0107140799070745,-0.0126019630360091,0.0080087057626923,0.0133514957821113,0.0161777944335987,0.0166742502546545,0.0037906275424663,-0.0071850857133437,-0.0181397297020805,-0.0271938667796265,-0.0102902562306184,0.0122338082775029,-0.0023029066742084,0.0276006310024977,0.0326565715425357,0.0023838349953065,-0.0210038315921903,-0.0215702010535007,-0.0245060278949322,-0.0057983792273918,0.0126714470690787,0.0195421194829851,0.0230250972241035,0.0007026855706728,-0.0033312236512663,-0.0134343886215285,-0.0127052428193683,-0.0115048996707688,0.0051891369957043,0.009519311681685,0.0058982598813465,-0.0215975992644255,0.0160766968942492,0.0269295317753893,0.0178928584783524,-0.0192114568165454,-0.0236101480716719,-0.017210896708481,-0.0245507798994148,0.0031649766658434,0.0182153120627872,0.0095777889551136,0.0478846692778208,0.0439683690371657,0.010852167562155,-0.0353860888982041,-0.1535475656465991,-0.0692431274650006,0.0957712545557403,0.1135259118231106,0.0546023690480729,-0.0219064629629781,-0.0594910063410422,-0.0265285779330506,-0.0070775129080461,0.0044346218966362,-0.0005403392618086,0.0062311294867012,0.0027851030002849,-0.0327489053961692,0.0076926121508489,0.0424323621957019,0.0482920796760796,0.0209666734601405,-0.03104950874519,-0.0727564842483878,-0.0723863598344353,0.0097478923873123,0.0527699260767662,0.0710543809426772,0.063507554016083,-0.0243200499143233,-0.1416127319534009,-0.0159668606466476,0.0737802580663954,0.0438083551121703,0.0181004607328148,-0.0138273897144173,-0.0611760123331456,-0.0898758478413032,0.0221064962139511,0.1301626655381116,0.0628135771961337,-0.0233038483365577,-0.1207457379069849,-0.0595188998491915,0.0842894776361751,0.0696892725731243,0.0123404237394128,-0.0596570804967682,-0.1073605477619154,0.0042926636514362,0.10681579881177,0.0597489502944523,-0.0028749427499722,-0.0478249601207945,-0.0307929116472957,-0.0091187180294205,-0.0220865301898471,0.0081084111758096,0.04378404352221,0.0181495044010331,-0.033934708974874,-0.0311748783280763,0.0143146250864694,0.0445755468545256,0.0425099602994545,0.0044386143934509,-0.0812920456732437,-0.074972252292853,0.0032983979126204,0.0861012574001144,0.0375385551043089,0.0015342051341727,-0.0080867170037199,-0.0787401177867739,0.0073447750097542,0.0764145428495964,0.0102148010684462,-0.0704037081837891,0.0032504953421431,0.0013026313041499,-0.035181961284728,0.0344466801045017,0.0744352967620635,0.0354408004565162,-0.095889028094358,-0.0770767924183768,-0.0044013304836655,0.1072360898934053,0.0576920405015046,-0.0413024297276119,-0.0515240936052968,0.0136005045219581,-0.0438609959032745,0.0013029959174024,0.0304746445711803,0.0367411883644557,-0.0081886413924741,0.0161756979096304,-0.0643568848309258,0.0386200642712971,0.0173541042291347,0.0260580987363705,-0.117448268070102,-0.0246680781169342,0.1144490422917063,0.0367092933626653,-0.0648963419471905,-0.0177974910418697,0.0271749687706282,0.0083897604228028,0.0199100847799996,0.0059299716546618,-0.0707480018925281,-0.0475978700513816,0.0561224165703709,0.0420671900575106,-0.0135131981837478,0.0184337098907588,0.0163289582961899,-0.0039584657813228,-0.0330188142385707,-0.0766900579265057,0.0250421799958141,0.0524295279213045,0.027562227596731,-0.0167620469019404,-0.001315713035367,-0.0078910996081131,-0.0113506652111172,0.0053683667142059,0.0041767387583119,-0.0299600501012933,-0.0042216385973988,0.0472291338031271,0.0307924693081296,-0.044760148032056,-0.0207672672957066,-0.0175832159348767,0.0372582275270761,0.0139591479347545,-0.0122098964781598,0.0150596868983855,-0.0004899302737494,-0.0209024081226675,-0.0277287250911787,-0.0060280100956481,0.0233405811655896,0.0285842750370329,0.0276365694823154,-0.0162881628431981,-0.0415989598018673,0.0045861079912524,0.0065992578231056,0.000595211426513,-0.0118121174281947,-0.0034398076524143,0.0170392686493969,0.0154358620250315,0.0049263767406751,-0.008152807634885,-0.0132287179386341,-0.004212020878179,0.0026484553715424,-0.0012474443666507,0.0152735463122429,-0.0015197730723886,-0.0417289293194085,-0.0024641419499441,0.0373468276748685,0.0395887429828576,0.0062841184958894,-0.0335847833775486,-0.0314504036857536,-0.0188334877885043,-0.0024678263295985,0.027512212872138,0.0263661329663774,0.0074137470994372,-0.0005383992642519,0.0033563688463366,-0.0189663267957172,-0.0418334483655467,-0.0190431435060766,0.0501411083858804,0.0417391893643505,-0.0111500588845313,-0.016999982610664,-0.0121095239736247,-0.0078992454663131,-0.0084447978102797,-0.0080682952399196,0.0199212852710301,0.0282647881774123,0.0188530427848354,-0.0145714776094375,-0.0373710719251645,-0.0190183724982816,0.0036316935877125,0.0160147102717455,0.0211039888572561,0.0158743032215796,-0.0072853974061656,-0.0226576329223017,-0.0003398238585559,-0.0048328668885294,-0.0021680210949963,0.0150945292795954,0.0071327680674257,-0.0094306939117484,-0.0047394509651821,0.0059180989026586,-0.0047833751971887,-0.0113054955271223,0.0113360932277422,0.0131293852529562,0.005758169576491,-0.0081649092406257,-0.0221101457214597,0.0002231353981208,0.0119655979764685,0.0091459534537507,-0.0003508063026347,-0.0086147078623627,-0.0063318610929138,-0.007211239542648,0.0095321746566497,0.02254888209641,0.0042610774506629,-0.0094870443347613,-0.0098615981623885,-0.0158798173847864,-0.0085846141872526,0.0005447639360976,0.0109105304058035,0.0199153696926137,0.0175440940980203,0.0078230196642494,-0.0160804701402023,-0.0410892122169817,-0.007588670148714,0.0177169155052152,0.0142735365519276,0.0038400855692361,-0.001084555566885,-0.003758929277999,0.00053375934249,0.0047965377404542,0.0003767298048731,0.0057725745052997,-0.0132131107118751,-0.0099051669167696,-0.0007331511914084,0.0002463779151339,0.0074244565581281,0.009176514078385,0.0065003819294468,0.0011537019853187,-0.0034233489074916,-0.0084154113513412,-0.0130113363806154,-0.0019845230591099,0.0125247447475674,0.0045419677705618,-0.0019508785790973,0.0035774601382697,-0.0011381205170922,-0.0115002274897619,0.0062229764476703,0.0104047289030093,0.0024911413073824,-0.0078481667850471,-0.0046176220966109,-0.0141507360737066,-0.001612234000062,0.0127715021689041,0.0131994781590761,0.0081845931057768,-0.0043602390928308,-0.0080854082452878,-0.0069223542505988,-0.0090268331709402,-0.0076272826543094,0.0095810856290223,0.0143631885874998,0.0102091767530449,0.0008827791004453,-0.0091619670431588,-0.0127681753969399,-0.0100483519236838,0.0052966953383756,0.012785081878374,0.010067466331282,-0.0060669053478403,-0.0173295953604152,0.0022144760767643,0.0145650255400802,0.0075708016194781,-0.0024120031351409,-0.006967279476226,-0.0096629192807509,-0.0097715538820134,-0.0056261231180006,0.0109886569382633,0.0203880772782219,0.0134017809289964,0.0022439824251392,-0.0132578132680188,-0.0321143694354044,-0.0052688625899283,0.0159739150418487,0.0113021624852701,0.0039203830723496,-0.0011201239245134,-0.005675879436272,-0.0045524839817779,0.0090136133025158,0.0094955459646838,-0.0048179502830489,-0.0198538741342757,0.0021730683621491,0.0066908520396923,0.0035685243760678,0.0019921333025106,0.0003938667826568,-0.0040610630651121,-0.0107902517080741,-0.0012604863152011,0.0177732093751068,0.0125285641427709,0.0014893068722506,-0.0095929030884393,-0.0154322736766898,-0.0165078293538566,0.0025330010068538,0.0128632597683426,0.0090362567893978,0.0053320239241196,8.353712938957219e-05,0.002628494866541,0.003105769797002,-0.0002045604778601,-0.0068946007204051,-0.0130891572269425,-0.0359244456222583,0.0097531664946306,0.0326854203563397,0.022078867783518,0.0068329176372736,-0.0038349109889995,-0.0122943638776828,-0.0151100701835541,-0.0158856360407878,-0.0037924092109409,-0.0016026179151904,0.0146365592147094,0.0139498538201022,0.0162044843421254,0.0059755239079053,-0.0054707032265453,-0.017962068074329,-0.0266696398896286,0.0016512545491375,0.0071769843945035,0.0095461934008759,0.0121753984677528,0.0081714255581367,-0.0027024000247312,-0.0076982287908909,-0.0084118834689816,-0.0035403549966246,0.0045774208762453,0.0057938239247041,,,,
-0.0110476803797287,-0.0176145169223492,-0.0016229226220389,0.0180448938858815,0.0125941928535108,-0.0006393993667582,-0.0042319353344037,-0.0105409405108032,-0.0024489865746274,0.003696737418822,0.0060329249161469,0.0007826281016582,0.0012749400342164,-0.0036092673646493,-0.0128409616253252,0.0050999720931036,0.0080303649659318,0.0076166526997472,0.0008474751851917,-0.0151002624877667,-0.0111043835486957,0.0119417321325376,0.0153613947730432,0.0037989619271128,-0.0147211709612717,-0.0146709296066506,0.0088695683765233,0.0043740716663088,0.0112236694085047,-0.0006261046330608,-0.0165831930278343,-0.0032788010906889,0.0043904674666055,0.0053102698686944,0.0128421203487908,-0.001700472609104,-0.0157717863803447,0.0090489726636364,0.0003007073580041,-0.0105470111812942,-0.0062801212607352,0.0044257024067414,0.0104863155601043,0.0040805149759144,-0.0011994130424945,-0.0015491478493809,0.0026954308434434,-0.0012238758721762,-0.0004649340899715,-0.0134813535354739,-0.0040917570572581,0.0036999038344879,0.0039252019744591,0.0118910345717736,0.0056406995461697,-0.0008534778058686,-0.0056660969199953,-0.0101019388283429,-0.0027905274960226,0.0021369922866596,0.0039795940955461,-0.0020384311710399,0.0018497198831867,0.0044318026324804,0.0011189102625108,0.0014649985826087,-0.002916793610372,-0.0059706466177945,-0.0102478573659464,0.0122765247988883,0.0124527492235554,0.0035448665922484,-0.0097958591637466,-0.0217836347820135,-0.0037085966606544,0.0135546968460695,0.0152588704679306,0.0081164790518559,-0.001600723629789,-0.0089449619146601,-0.0097040219221155,-0.0055728990084226,-0.0045455239741326,-0.0004359534531204,0.0058046326529397,0.0199967733164812,0.013284299370039,-0.0025101040373815,-0.0145470456448405,-0.0285849464252912,-0.0081466254592391,0.0139401936106925,0.0197276709178542,0.0116994970132171,-0.0031422627752829,-0.0034113655053036,-0.0048003483130011,-0.0104910075789291,-0.0065919209505405,0.0021477064878064,0.0057863497402749,0.0070294599937325,-0.0028789349803069,0.0081121006548728,0.0021386673146707,-0.0012388672855865,-0.0119509853341115,-0.0093924789904551,0.0032169751326318,0.0047726832623241,0.0078723847771043,-0.0015116276928711,0.0059062326655952,0.0041013480848172,-0.0139224999901703,0.0027495561973796,-0.0029404987868633,-0.009561442175126,-0.0022184232531669,3.646809134071345e-05,0.019528763863155,0.0201709042447913,-0.0029600256829258,-0.0034651301352903,-0.0162218426648195,-0.0243655916818421,-0.0163256494302676,-0.0156377924030352,0.0289479238012111,0.051600309254516,0.051929650924514,0.0146043550014082,-0.0600427518116912,-0.1244305951377019,-0.0286130456355072,0.07257597665255,0.0766941714724076,0.0274888116293195,-0.0044961904685594,-0.0275667511473008,-0.0265086841767273,-0.0070666916393425,-0.0400370821655076,0.0317862339254641,0.0317569076126215,-0.0447062810678419,0.0111776899124257,0.0441682832722307,0.0256970747028578,-0.0137572732233248,-0.0581726631434237,-0.0082187143461826,-0.0072289168876147,-0.0054462872589561,0.0531036220821901,0.0518694641493819,-0.0049390778821866,-0.0688222973393513,-0.0844330190930949,0.045820206796288,0.0760274792755049,0.0446313222879781,-0.0137861919720318,-0.0584329609902938,-0.0731919890787177,-0.003099952664289,0.0684118482679185,0.0638714630957611,0.0168747706577757,-0.0629031706041651,-0.0798272186139575,0.0400663931191067,0.067566043950298,0.0210732813542325,-0.0351353200037879,-0.0916406540931958,-0.0330027932277993,0.0564252980895472,0.0950085838699664,0.0745236258958592,-0.0002605472808079,-0.1116787726213654,-0.1888673780667516,0.0488532563366038,0.131610165292954,0.0613206621057171,0.0089905265243616,-0.0679834822979938,-0.0589737826724121,0.0982649565404426,0.0584240138198197,-0.0827087104580673,-0.200301705333256,0.0295950142083048,0.1442840528150661,0.1128277192532921,0.0300241186578671,-0.0468119219977507,-0.0592835962817369,-0.1005312345130126,-0.1397426948382331,0.103854521206823,0.1358768910252095,0.0650117083001693,0.0110073479371516,-0.0574571176752928,-0.0016921483591127,-0.0386680177941728,-0.1490005800382659,-0.0043068984960122,0.129007776052274,0.0739140725967268,0.0222227419450585,-0.0377781253052529,-0.038988459609687,0.0038505459023557,-0.0050819285742506,-0.0261624596972728,-0.0133465936486919,0.0066383029038433,-0.0022675687870738,0.0322316729422674,-0.0006317164824946,0.0038412659850203,0.0522087601092241,0.0567940344501766,-0.0254245977903431,-0.1522763381190914,-0.2023865288652181,0.1753735517102069,0.1730606758708643,0.0484910970497256,-0.0376262060136283,-0.0579109716782444,-0.0285236990819945,-0.0762677664689627,-0.0546335950347658,0.063419836126885,0.0846224617261269,0.0724221892872538,0.016524339222722,-0.0405349072944179,-0.1673471893608648,-0.0726504397726616,0.1162369330846674,0.1173115365507289,0.0417416148062852,-0.0457690448146429,-0.0496464387475333,-0.0306771121551982,-0.0644912581803552,0.0131944731338386,0.0725732190743322,0.0230491699339014,0.0054889187431045,0.0164746261865622,-0.0067544645802085,-0.0255097094972247,-0.057322254919386,-0.0125247664180963,0.024624397819776,0.043069352276628,-0.0006548465062122,-0.0534510848794905,0.0844876699300949,0.0421993048765646,-0.0466056723733925,-0.0699564318897998,-0.0410418405478583,-0.0033177655252995,0.0594736458577291,0.0698264668037673,0.0323644504764153,-0.0321024909217936,-0.1329342928947697,0.0100789386733804,0.0776666583710028,0.0335532784697451,0.011138765507311,-0.0425328296705627,-0.0865521095553724,0.0240241206544497,0.0542715579353063,0.0434097194711939,0.0026475561791644,-0.0297142078910691,-0.0327298956265912,-0.0274973625543588,0.0240870047766894,0.0347419436415734,-0.0160179367961631,-0.0044518414198714,-0.006817653928453,0.0035991336276457,0.0087891854201735,0.0250121703801391,0.0064903055018454,-0.0273723431841251,-0.0286500592691736,-0.0016352301885435,-0.022972536440573,0.0140057472592427,0.0615279736737039,0.0306903473227152,-0.011503869094102,-0.0348573402226428,-0.0489299768915477,-0.0280542824170619,0.0303799890727715,0.0544444607340031,0.0244502086906018,-0.0267609153938829,-0.0437385900849655,0.0157811979397874,0.0198500727657165,0.0039722702806316,-0.0121665570900595,-0.0135651065594525,-0.0034974707956737,0.0031923572780754,0.0158966617448995,0.0110328043950748,-0.018413144318468,-0.0054300016457535,0.0157661577775636,0.0073429350461222,-0.0095173769025366,-0.0074451210380123,-0.0006523203454855,-0.0079308424794248,-0.0163774621754786,0.0157445977601351,0.0274374388152061,0.0134057685135396,-0.0128001109827215,-0.0176235130796725,-0.0085901685432523,-0.002752341589099,0.0012221634725131,0.0075867477499667,0.0039122745317004,-0.0010335885577393,0.0065534988885099,0.0049668233477739,-0.0067788135414399,0.0013130504930822,-0.0028212070314826,-0.0062862253901032,-0.0128277284905875,0.0005104588309364,0.0139957927500159,0.0109835612457139,0.003530706674226,0.0024605362708696,-0.0040335617662859,-0.0118600775197316,-0.0295476996263427,0.0129048103323239,0.0247945110623021,0.0104213496432251,-0.0106058339891879,-0.0127056735869437,0.0016862886988444,0.0043247329874377,0.0017646971846219,0.0012325497829074,0.0028579316557255,-0.0034514815590286,-0.0195116756619384,-0.0001340865259013,0.019336837609298,0.0125731340844532,-0.0012003700166419,-0.0106298629814953,-0.0034450037319267,-0.0038290825432742,-0.010744683364525,0.0038756983331353,0.0153172099725299,0.0100761937007032,-0.004033016732573,-0.0215076078917067,0.0019971873570746,0.0153640977784825,0.0027430671076957,-0.011102159505756,-0.0029256847496248,0.0030717715390969,0.0011911210973966,-0.0014110978725476,0.0067713033242936,0.0008636705063638,-0.0084532699337204,-0.001393769025012,0.0050663286329799,-0.0028306021204813,0.0002897542861444,0.006965954101115,0.0037574853523783,-0.0054280290828627,-0.0059070871736909,-0.0085049208013751,0.0024984328144899,0.004631319881268,0.0108078173612153,0.0014537355244371,-0.0110392351104398,0.0078289813749164,0.0055022743817142,-0.0062252063083005,-0.0145468606087236,-0.0079717071616921,0.0081203632997068,0.013158337919117,0.0095315087715533,-0.0048875321943332,-0.0110136741767281,0.0067026414107219,0.00411129538837,-0.0045593940754566,-0.0100279904535276,-0.0071022124358655,0.0027723613281932,0.000113637173761,0.0221839729394651,0.017318528628748,-0.008140361038109,-0.0350102781734307,-0.0025059863832007,0.007974970950961,0.007851437303116,0.0068553737742651,-0.0004370920721125,-0.0037439191077209,-0.0010047975299259,0.0002455963634134,-0.0041207103788731,0.0092140643162006,-0.00307204196233,-0.0034648038341774,0.0025007586247481,-0.0052640720770346,-0.0051941423029414,0.0025362111820198,0.0067186884341187,0.0097003154821768,0.0062861649770935,-0.0061958132406403,-0.0279103460646131,-0.0032483068386063,0.0234223049963848,0.0100120523442671,-0.0021408049689089,-0.0099615380474202,-0.0073382694559081,-0.0063941026276564,0.0083978011397079,0.0155727630253913,0.004908924752031,-0.0090146007408665,-0.0084320143493069,-0.0151796869906335,0.0071188543130356,0.0094450313196688,0.0082867368120038,-0.0001052315540129,-0.0008984178687655,-0.005023917464702,-0.004427894813624,-0.001182087488474,-0.0071008053558951,0.0084212636869295,0.0138148816185431,-0.005626905288001,-0.0179068594477101,0.0147898029539022,0.0078481999401925,-0.0028830817655693,-0.0170261922144159,-0.0013611334479133,0.0083116408862389,0.009161101395165,0.0045669778796645,-0.0107299596439675,-0.0029003693267693,-0.0077982161359582,0.0081754312627898,0.0022442105665009,0.0073646001478437,0.0007588496889659,-0.0067571920184896,-0.0075193307852633,-0.00103677461224,0.0050666521248549,0.0056497031095375,0.0037257563701395,0.0015724589566121,-0.0136073398663479,-0.0192010146454493,0.0158400777677881,0.0224187542991434,0.0052021631713967,-0.008646504550787,-0.013968665714423,-0.0134180149959162,0.0041277764703582,0.0118401468575097,0.0088860894002103,0.0032073673287471,-0.0099758877323565,-0.0167570004759617,0.0055665134086964,0.0137538089558003,0.0069726646401279,0.001416730031511,-0.0028115474315831,-0.0128591660203149,,,
0.0053157479455039,0.0037251580908874,0.0038277245378243,-0.0142271589080923,-0.0229677557558482,0.0014291210871709,0.0152910602920965,0.0110961503362973,0.0055278912267988,-0.0014365651956556,-0.0087341486458307,-0.0002174133372627,0.005618240920872,-0.0015925453275974,-0.0112327169398594,-0.0211924884673191,0.0015582241763955,0.0274453746694885,0.0206790321304171,0.0053417308691076,-0.0085330282799248,-0.0196497190968908,-0.0188114871539387,-0.0086152873596413,0.0127291157460895,0.0205281866272099,0.0115369366414615,-0.0025024478298312,-0.0052027787430159,-0.0170496839218722,-0.008225769323262,0.0042819979042143,0.0130184785556382,0.0099809888018396,0.0065833625918196,-0.0119177232653088,-0.0131339917222025,-0.0052932236758526,-0.0038904812089027,0.0106185707234087,0.0143941895235183,0.006178021187887,-0.0132778119278293,-0.0020200847640647,-0.0069861034598414,0.0084794904904136,0.0091863461881247,-0.002670751454999,-0.0084563708702117,-0.0078378075836068,-0.007633324213759,-0.003369773437912,0.0151854348617423,0.0185971002265783,0.0067486130559962,0.000858253554275,-0.0105447327574118,-0.0166674108634974,-0.0047763429729598,-0.0057912333997725,-0.0042038206334739,-0.0055786751455135,0.0195476208551477,0.0290216801549944,0.0143484361319608,-0.0083064957431621,-0.0179813477781457,-0.0251362327419146,-0.0187580260449613,0.0071759734804744,0.0160719008434229,0.0139498370618323,0.0084044197067159,0.0043713649982007,-0.0043398626460619,-0.008345645434816,-0.0070970109930858,-0.0044129538862556,0.0004940827967887,0.003105342029359,0.0032496476774041,0.0001964323301356,0.0005146079600635,-0.0034689434647005,0.0009129396767298,0.0021069596725475,0.0055762767508239,0.0058008697204556,0.0011422817623228,-0.0083571128483914,-0.0193029607681313,-0.0039149784893095,0.0100071124851034,0.0124775421210836,0.0048014759248468,-0.0003502148537204,-0.0004379766050985,-0.0046349157035517,-0.0028821785064102,-0.0010448401494944,0.0023667104154731,-0.008381982728786,-0.0004844266193301,0.0052500227476078,-0.0002817629835622,0.0027982427875209,0.0057757769087289,0.0033948420831334,0.0079146123051965,-0.0068161102964412,-0.0254622600602294,-0.0147932071097829,0.0175173511485208,0.0170459471790372,0.0010034208660816,0.0111000125403655,0.0127289837023642,-0.0061487552165685,-0.0340366586985234,-0.0523837830008041,0.0141290669194312,0.0575165967198535,0.0460491980405841,0.0001889632177695,-0.0282352435955691,-0.054324878173747,-0.0292675143720059,0.0125998158497417,0.046591684681061,0.0477144370799807,0.0024120983740278,-0.0870702443768472,0.0055403570286196,0.0235529703007541,0.0343487891546071,0.0058716362687043,-0.0404462226043536,-0.0327241283986396,0.0055289160957802,0.0261858603852933,0.0271991380219353,0.0289706989631809,-0.016559621725682,-0.0887229747296152,0.025658878774008,0.0506752291045725,0.0112542681949935,-0.0215767850951194,-0.0349981439633053,-0.040803439481322,0.0673657189428961,0.0584709769997892,0.0079299072432989,-0.0720567885332478,-0.0792871525020647,0.0435453567150411,0.0542275433847193,0.0266445471265143,0.0013767371050631,-0.0335739844573776,-0.0493426347001127,0.0192364748021612,0.0199641281305774,-0.01995908867338,0.0104506568831321,0.0273739308260181,0.0475203948777694,0.0027618589833144,-0.0861636850569532,-0.0547908771316393,-0.0093276650833898,0.0652802124026963,0.0509147456922488,0.0091247067066164,0.0359713253152056,-0.0245564723306625,-0.0784926465371551,-0.0522091759279087,-0.0243703210934767,0.0917101668113853,0.0941858315889943,0.0035441095815127,-0.1167259335825188,-0.011340853023015,0.0532005842115325,0.011441129059667,-0.0706274080161104,-0.0140113705233488,0.0894961724448669,0.0345249739381429,-0.0144739418745534,-0.0639778839532168,-0.0146804211824114,0.0116256366465756,-0.0769790082111136,0.0715826302646874,0.1173807688653388,0.015252023004682,-0.0811967954439941,-0.1066840937167967,-0.0365766052290109,0.0985603799593164,0.0906210648415595,-0.008645493652165,-0.0369299470157797,-0.0792185213257204,-0.0220943738841481,0.0479858340774216,0.0698136484844221,0.0017749857797406,-0.0244454505071128,-0.0166885173837232,-0.0363894158846154,0.0175240685761874,0.0158471264787407,-0.0212393382159452,-0.0187615006129271,0.0292893700204386,0.0509113466880032,0.0128544065147136,-0.0369794449074176,-0.0124623292909281,-0.0398883531560571,-0.0071768569113954,0.0007965073606314,0.028284056402968,0.0621794237508438,-0.046679682167624,-0.0054017391874579,0.0439454174298407,0.0080186397978816,-0.0520761386463529,-0.0822462188333754,-0.0019939350132983,0.1008614454401004,0.0562116778881758,-0.0233552727151398,-0.0563968828191372,-0.0363121472405198,0.051127046073923,0.0254554746149361,-0.0259807512977815,-0.0327757695678005,0.0077864326905833,0.0150970280685568,-0.0154637378499177,0.0280785311903474,0.0485844050211309,-0.0059873472416218,-0.0859908876775213,-0.0470181662306925,0.0732206775759351,0.0577306081579647,-0.0057374208424497,-0.0515074600464751,-0.040397735896969,0.0045536058912928,0.0704456904919053,0.0290333620433219,0.0011761497781533,-0.0583506960140275,-0.093031585909582,0.0348897748900436,0.0834911730064867,0.0369442758679431,-0.006974567745091,-0.0603702502600218,-0.051714771439117,0.0242526300893319,0.0579099007528106,0.0285998556168634,-0.0370364328980823,-0.0437365629805797,-0.0087699033663899,0.011516891306047,0.0351703001795132,0.0267857775012959,-0.0137852728459484,-0.0037007163053064,-0.0065884365463427,-0.029580825342996,-0.0307552910735491,0.0100852575471975,0.0341873634216275,0.0269934908774472,0.0225715840613282,-0.0021175068087453,-0.0279847118574735,-0.0294613313063728,-0.0502339914773207,0.0169551798986463,0.0485854092048169,0.0373302958669955,-0.0114631375863684,-0.0163308138827845,-0.0038376518525061,-0.0071828512502104,-0.0038622524294266,-0.0092465566883427,0.0005776898117656,-0.0054048415246577,0.0147000061339683,0.0139914800115742,0.003791025279125,0.0062971338540226,-0.010020212971115,-0.0231681288007191,0.0085595921936166,0.0044539873927261,-0.0049847725164187,-0.0127843435299366,0.0039959805779357,0.012909437733777,0.0074626420074451,0.0106967176144716,0.0106114492665876,-0.0113878737414361,-0.0266912039803393,-0.0141337283499478,0.0088023027362807,0.0022710860562532,-0.0067420709541,0.020544676441272,0.0185394948068894,0.0108122161963465,0.0028527820658099,-0.02521397886627,-0.0283617543298299,-0.0096527398214509,0.0023483282332624,0.0152293869720582,0.0205001185819784,0.0120100614116191,-0.0016440160864991,-0.0091501872558642,-0.0041759481419084,-0.0059590015069257,-0.0031999865344257,0.001796370485744,-0.0064552411104272,-0.0107782414597699,0.0039900383634002,0.0184511629591157,0.0189944880042341,0.0005404593944527,-0.0181002885588809,-0.0122029095437699,0.0090781959692811,0.0081829542359022,-0.0158465819534728,-0.0157568870298952,0.0028731112090507,0.0168431525319621,0.0160452901570745,0.0036139982574235,-0.0107037352655776,0.0035177660537838,-0.0012661622597775,-0.009142644933028,-0.0122502189572378,0.0008074016377845,-0.0067080627299278,0.0078076347471595,0.0101272751881363,0.0141838097983863,0.0093278241261009,-0.0001173640078313,-0.010629303994806,-0.0214905391560915,-0.0089312373604797,-0.0086914908913132,0.014430393119525,0.0127590683778844,0.0092282905108216,0.0021395500527205,0.0016586679126176,0.000355553957807,-0.0068077830463933,-0.0113758858123489,-0.0063860448602433,-0.0016866867011707,0.0044767385927977,0.0046332426581461,0.0046357735342747,0.0016469675748872,-0.0020628876061379,0.0094408076854244,0.003941630139453,-0.0022060234293735,-0.0095968191714088,-0.0127989795109358,-0.0072093324388796,0.0025665042682706,0.0089761334956089,0.0096404762165085,0.0109608708410174,-0.0011124629557993,-0.0093672878013095,-0.0037819914118379,0.0055663477449351,-0.0005518689154054,-0.0159665451032154,-0.0140456854852107,0.0159821600176395,0.0169293609866404,0.0093549298747347,-0.0027478179645029,-0.022528056287069,-0.0033060724663415,0.0154915874478227,0.0049605303802665,-0.0125053121812313,0.0036849532170473,-0.0003381937621129,-0.0102323219745627,0.0033952236862824,0.0050198127756486,0.0080435206625069,0.0069902608651996,-0.0048905784723767,-0.0037519341675367,-0.012717003504689,-0.0116265408096588,0.0161442613588577,0.0089633457161769,0.0006689932490346,0.0020869236478978,-0.00261881505305,-0.0116602399360995,-0.0051095177948224,0.0131972969883236,0.0059568799588752,-0.0107997576296148,0.0018075524659657,0.0034200476586233,-4.701032273005266e-05,-0.0058048813616503,0.0041250556294589,0.0063821527576432,-0.0064138681283652,-0.0105297726245002,-0.0016048498183466,0.0118454045098652,0.0115170286674628,0.0016331781602183,-0.0062825811746053,-0.0101983852244619,-0.0068009612607768,-0.0045627293925692,0.0041866462655087,0.0172798750863103,0.0109957431570623,-0.0100962347532821,-0.0092935798223199,-0.001549684564201,-0.0042785709120599,-0.0044767504432267,0.0055593285436331,0.012475664933097,0.0108616595016279,-0.0004818593864071,-0.0178376902745639,-0.014042871628944,0.00140597094318,0.0097011065536863,0.0026345017385205,-0.0020408708405743,0.0083050924621314,0.0066109062919077,-0.000947037867308,0.0023098191353336,-0.0005493021964264,-0.0204481423184726,-0.0278266590880858,0.0099731665755382,0.0273474127685588,0.0145409931187079,0.0006996988636528,-0.0049681823889869,-0.0042662878724545,-0.0002891084524692,-0.0085571787933684,-0.0127297828580319,0.0069130141285731,0.0011564430778945,-0.0121204744662763,0.0130206658365466,0.0183847876194929,0.0040164265400852,-0.0001489779936574,-0.0043572989282447,-0.0217142777572538,-0.0106849236973823,0.0105710878233126,0.0113701961940865,0.0028871579199925,-0.0039425804934265,-0.0040433630758374,-0.0128628538364593,0.0139043682100978,0.0191506953618503,0.0082872544961559,-0.0164281429076274,-0.0113855576991626,-0.0152215055703157,-0.0051508870424098,0.0042254509336688,0.0168579624316634,0.0194867012068876,0.0061046834829554,-0.0037566880977543,-0.0276150247026251,-0.0131612090477721,0.0117281785942155,0.0094297716633965,0.0023369064059167,,,,
0.0085475450543417,-0.0148674901884866,-0.0187007164843028,-0.0027142080011235,-0.0024356975162919,-0.001783578143473,0.0006059870879837,0.0080301958407447,0.0068055193607265,0.0102787248534503,0.0017528583846527,0.0020771613180713,-0.012951791122506,-0.0285780108620507,0.0021579711665631,0.0140453025877002,0.0101606914511806,0.0090592955863322,0.0024893274527264,-0.005540521278302,-0.0115450491491057,-0.0009280558729564,0.0012904024006608,-0.0003417376659871,0.0007296929352238,0.0028539497400543,-0.0002066241101437,-0.0079330685305695,0.0050286342246483,0.0180993175886326,0.0011591821557753,-0.0204568359979173,-0.0102513057939486,0.0070170911994586,0.0084445513077068,0.0014877815704273,-0.0013287302401175,-0.0006385162934981,-0.000242927028579,0.0016458931533857,0.0003711486984508,-0.0045094589153001,-0.0019550870795517,0.0035357401399844,0.0027352620547685,-0.0002759826780768,-0.000918977414216,-0.0029957807802654,-0.0012567451928443,0.0007676260309076,0.0029578714634864,0.0028663681286026,-7.272195060172404e-05,-0.007337408703062,0.0038742034285361,0.0032513702807574,0.0039108934278642,-0.0108412145216993,-0.0049676735559851,-0.000197460804883,0.0075327969073397,0.0134570879504985,0.0012797721545182,-0.0097271477169292,-0.0076095942363534,-0.019092548173276,0.0104236935739547,0.0256102397301441,0.0120866079870999,-0.0192542512999932,-0.0132262036134235,-0.0019736996730461,-0.0001842381558056,-0.0030438981541992,0.0099371321645498,0.0145930677376932,0.008854003517375,-0.0017936168634388,-0.0153694183680382,-0.0228419334239647,-0.0091119266571019,0.0071773231803412,0.0222083598656663,0.0178488566345966,0.0152006429841072,-0.0127278359178769,-0.0211609454710112,-0.024534190966125,-0.0246919401067895,0.0358418108314739,0.0387600867990946,0.0072744248453649,-0.0089485715638226,-0.0231952969735039,-0.032488970173929,0.0039086415628651,0.0239015690393425,0.0191953668940674,0.0064575191931418,-0.0211001392764904,-0.0037280120868603,0.0016946466079502,0.0001190948610049,0.0107263619543874,-0.0047633158843937,-0.0174345972626978,-0.0207821177064984,0.0220489606982861,0.0291332729248254,0.0144485303586839,-0.0110565799455243,-0.0184864425775484,-0.0158773910259536,0.0086771289361465,0.0051927107056167,-0.0296372737572719,-0.0072616830176151,0.0330515438907496,0.0351519002662669,0.0163972515413514,-0.0324216995640106,-0.0084955392874741,-0.0208374456591035,-0.0155219309147892,0.0095586546539066,-0.0057876330525106,0.0176970000561986,0.0134226571953646,0.0279476330665107,0.0147344283229074,-0.0293167955161806,-0.0395453945302881,-0.0117897155713094,-0.0044760172389428,0.02161258730858,0.0311044208661485,0.0105211647905291,-0.0014379550648859,-0.0197401457190719,-0.0415658589927547,0.0252402072984651,0.0329778155231663,-0.0026846227165848,-0.0254336324631587,-0.0212010131080854,0.0036324519126127,0.0317945418761204,0.0294318173790234,-0.0028809376222795,-0.0477155891525278,-0.0456844105481025,0.0371535548656077,0.0412462714145694,0.0110436625097448,0.0034751929076081,-0.0095395120301441,-0.0642289280677036,-0.0365083227159387,0.0548962389701689,0.071727062342655,0.0188621053281869,-0.0619848435712534,-0.0414913597705308,0.0049842240458864,0.0106123301732661,0.017396355954015,0.0253017109192249,0.0143323577508322,-0.056691053581181,-0.0139404513075293,0.0252663288647429,0.0461265185049288,-0.0141353686175778,-0.075201212652968,0.0372216152161166,0.0494461776793453,-0.0609885355792278,-0.0189296490301204,0.0721353810655569,0.0203183951757851,0.0035916233974025,-0.057044330272609,-0.0552627404294966,-0.0484555421418045,0.077857238429953,0.1143624438484728,0.0354582785701031,-0.0924886988565275,-0.0884939570027131,-0.030520557217606,0.0484875445387312,0.1120079210001288,0.03072720842504,-0.1039400447931285,-0.099227471171229,0.038361476083636,0.0686474230218825,0.0914802503662514,-0.0135781299412482,-0.0569209228017652,-0.046061982638154,-0.0724920068802195,-0.0045713963298441,0.0400139435656976,0.1172550647393649,0.0841154024259727,0.0087930218850552,-0.1049504426107175,-0.2181078068635869,-0.0770893026890383,0.1896854931195938,0.1836426871631222,0.0626852203958058,-0.0631063364275103,-0.1360543527876471,-0.1063164929497746,-0.0374611183823259,0.09393327636825,0.0959301413332823,0.0398165258828361,0.0449464902866384,-0.0172012493121173,-0.1173378359209611,-0.1292616729718756,0.0104314273912531,0.1229531158419714,0.0754218231525717,0.016460668779043,-0.0244746589626198,-0.0650089017629803,0.0033156156380383,0.0202352403261814,-0.035181156044418,-0.0553379601101943,-0.0193766630696472,0.1092183910270087,0.0654648752081017,0.0226687598184567,-0.0324993292911438,-0.0877188395345131,-0.0953559024890429,0.0316696763078204,0.0730323263599767,0.0566880355604989,-0.0203405870256689,0.0069971845496702,0.005350403396487,-0.0567806144347034,-0.0128777351416946,-0.0044929361910797,0.0156252071776559,0.048123863499223,-0.0409900000071301,0.0326847188611804,0.0280370017924595,-0.0396456261748694,-0.0536192690786075,-0.0227618666053732,0.0490490045636921,0.0662542125599951,-0.0108993815057498,-0.0181942375932887,0.0129424345165044,-0.0264308417345107,-0.0582403178984415,-0.0244534161535872,0.0421631927070905,0.0462673129576652,0.0543593708834663,0.0067571532273818,-0.0336330054188084,-0.0270093435746658,-0.0765571351259272,-0.0227029443040578,0.0087156410851522,0.0884642802484442,0.0665180246300398,0.0048664221076993,-0.0137063746954932,-0.0504577051999855,-0.0795217350287273,-0.0585846299244273,0.0515557299061366,0.080586958794846,0.0586047582324443,0.0199192402580195,-0.036657551796513,-0.0464303114613583,-0.0478918421828283,-0.0500688869137605,0.0157501335749794,0.0748508142178668,0.0720645240764395,0.0077520006531767,-0.0435379436719906,-0.0682980018086527,-0.0142363155240021,0.0376601618736617,0.0098596950521366,-0.0076971664210295,-0.0083047234482267,0.0006435274620758,0.0358131068029606,0.0381106101481294,0.0005736070841586,-0.082580047394684,-0.0763028821646006,0.0549093303882711,0.0658479084497479,0.0251052820679569,-0.0353877114454498,-0.0022473150538087,-0.0033214061889779,-0.0006961818914526,-0.0039791922329739,-0.0168032594341802,0.0056654088294022,-0.0014474372707454,-0.0212850001079123,0.0254672173280689,0.0341579081826609,0.011721742264723,-0.0011357145744454,-0.0126865092681595,-0.0453554128908218,-0.0249974469775525,-0.003911613127691,0.0088714959293601,0.0408520939189296,0.0441481179838422,0.0185215379588408,0.0012334751018328,-0.0409635423384864,-0.0643712257759152,-0.0603364145124329,0.034940052802434,0.0729281158872445,0.0483957974222624,0.0076060835879636,-0.0298670446516703,-0.0451641123096905,-0.0167672214147019,0.0180614461588802,0.0101347236896099,0.0063215398522541,-0.0079373901026327,-0.027548347451104,0.0159865331034742,0.0269328600061085,0.021676351289956,-0.0003952372551376,-0.0234156987620841,-0.0283674382139233,-0.010022086260703,0.0082064923176549,0.0133335649115749,0.0085575898494209,0.0039125113400457,0.0148489705100628,0.003812275953321,-0.0194391111348194,-0.0203166289332116,-0.0016433691172335,-0.0045573404940058,0.0066956593098164,0.0256518824789177,0.0301717606834677,0.0068851877333095,-0.0465905556733044,-0.0887331341332168,0.0358442685054139,0.0684110880724495,0.0397980005920027,-0.0018731321984865,-0.0402257298262929,-0.0501740469796353,-0.0189739575804437,0.0271000525739822,0.0364128544532537,0.0195781740306733,0.0006337233665915,-0.0109914622426583,-0.0166390146152686,-0.0157145226225165,-0.0115327963115287,0.0034059162637684,0.01727819759048,0.0169645804975258,0.0065342950626345,-0.0019459724252625,-0.0068159708228832,-0.0111646907434423,-0.0087318440153697,-0.0027205522884721,0.0002715907059322,0.0043774782357284,0.0135968019647831,0.0094598856499029,-0.0054760133810619,-0.0036605782209599,-0.0045630928427664,-0.0090034198392442,0.0001012802050399,0.0043890068288582,0.0014851825360877,0.005911052607938,0.0040921001853865,-0.0038335293644418,-0.0113701141101525,-0.0012301287845607,0.0072835361565815,0.0052440275297474,0.0010930237852967,-0.0002748561997064,-0.000751589512835,-0.0011451478452201,-0.0083407563472479,-0.0019765333349812,-0.0007972700091451,0.0025306769851657,0.000724431475511,0.0063372910142264,0.0109095893819608,0.0062560641116192,-0.0023602413389462,-0.0117210888823715,-0.0198669129418052,-0.012573242147881,-0.0007765434629782,0.0223772372614461,0.0256767447642305,0.0094883354889695,-0.0078677819012712,-0.0171171574735989,-0.0165904678062536,-0.0001734139459514,0.0061953029437148,0.0050502027323689,-0.0019273333920016,-0.0020705641431093,2.650877051082261e-05,0.0051764044218226,0.0164196054029077,0.0026307774615157,-0.0102963108239928,-0.009033273645353,-0.006990621521156,-0.0054938733939082,0.0001154855175659,-0.0005391393015953,0.0061129487634247,0.0170264235594286,0.0101036425430813,0.0016441469057864,-0.0072986993051565,-0.0120898111766931,-0.0181175038868894,-0.0056012387797727,0.0044611638110325,0.0035446003965954,0.0061323602869927,0.0275221815073335,0.0168113095498412,-0.006920744125342,-0.0252784582683434,-0.0252090702757554,-0.0116168642984826,0.0065282395137707,0.0154967546989285,0.0138976252594062,0.018489473216543,0.0096833792824937,-0.0061310147980318,-0.0229297762648534,-0.0292227185600298,-0.0052114080612764,0.0169935851186799,0.0164511169775011,0.0073374873315363,-0.0001808956112996,0.0037972142602318,0.0014338614831316,-0.0066344909790517,-0.0058920997500828,-0.0156222129573099,-0.0117016792364683,0.0068449771247561,0.015688499074991,0.0207666325766422,0.0156434303782894,-0.0120075277353285,-0.0247598120762078,-0.0256118206281378,0.0063809232783889,0.0206363021668061,0.0090137593856457,0.00178319839708,-0.0025098217634521,0.0024434235221578,0.0015474941628509,-0.005168221488282,-0.0125787400390378,-0.0175834801084049,0.0036391291356644,0.0252939930653815,0.0027623300959174,0.0105768095478361,-0.002389258536462,0.0025510964231014,-0.0013745444616091,-0.0145362875527213,-0.0393253407009596,-0.0118369387761744,0.0227274898782036,0.0410351574660839,0.0286767483130667,0.0049565742212407,-0.0145808253548673,-0.0385797320262871,-0.0368523247924342
0.0024872307931883,-0.0140249026532527,-0.0035770204383975,0.0042962496612982,-0.0028854414405315,0.0051920488266274,0.0181389236854417,0.0170860076075863,-0.0129163282076679,-0.033665897856854,0.0071610263914218,0.0165309624908647,0.0016410025280808,-0.0196993590155154,-0.0190855851890092,0.0061816908337267,0.0273430317712507,0.0239582920262374,0.010917721233557,-0.004744950402607,-0.0274646756407144,-0.042098055644704,-0.0034182243342028,0.0204022579943177,0.0122507383915154,0.0188370098365814,0.0101658330794693,-0.0006437629602877,-0.0095498403553967,-0.0122464622376649,-0.0090950969720601,-0.0001161427210233,0.0078154942739475,0.0050914650968724,-0.0117902698050978,-0.009777254145001,0.0060798212122595,0.0160546608225784,0.0210607120319907,0.0037292243812297,-0.0107293447360246,-0.0195284658523903,-0.0133692136354416,-0.0096860180296828,-0.0013831937825315,0.005197324990728,0.0196909530263512,0.0277286785532968,0.0102235925073144,-0.0139380242098687,-0.0108133582577107,-0.0182229841697337,-0.0150221967919223,-0.0108616386032402,-0.0011847318464402,0.0207993298775264,0.024179269728515,0.0197515534340968,0.0090096333385032,-0.0098735249111395,-0.0266012079785468,-0.0396449118327614,0.0010121833708005,0.009113326411524,0.0168332933302511,0.0219114992883672,0.010343850042729,-0.0048864719696429,-0.0108864436718686,-0.0060347703513133,-0.0017992978060333,-0.0048084626591538,-0.0037730220118362,-0.0031838748051875,-0.0098148547892138,0.0152364788169383,0.022893151270247,0.0133750485413239,-0.0083885724080966,-0.0311371642598842,-0.0227127855388285,0.0222339392673983,0.020269406957393,0.0033356459519989,-0.006417799330989,-0.0071327580864239,-0.0039559972955621,-0.0095231024894137,-0.0015274788709967,0.0168246186040232,0.0096156492431811,-0.0093784421213217,0.0178430833189442,0.0038367523613996,-0.018388217610174,-0.0255880965276022,-0.0161662912664424,0.0025576658273268,0.0255105010561873,0.0305560280911596,0.0197865328724786,-0.0027740895219678,-0.0176800168146611,-0.038470178606727,-0.0263599864914033,0.0041181190295279,0.0203310670756637,0.023820088419073,0.0175976445772198,0.0093054024541933,-0.0048901782004624,-0.0165678742150611,-0.0169275527542636,-0.0139141378765206,-0.0043986721358354,0.0047016690400264,0.0082203983459999,0.0152764451661422,0.0217962726439652,0.0072933797424318,-0.0104315329306857,-0.0221613933791596,-0.0186699626827324,-0.0084055426561306,0.0048174183013536,0.0158975613112633,0.0154645039344168,0.0063762788577999,0.0022441286416274,-0.0021797072321929,-0.008772888114948,-0.0111069547163161,-0.0107322075166397,-0.0031803963187881,0.0043010449376537,0.0119097809446112,0.0123115751102617,0.0015368305301243,0.0030261206829282,-0.0024160017598771,-0.008747197432194,-0.0132936503682909,-0.0064306349500539,0.002633227906084,0.0050383352853947,0.0136025857899487,0.0069949908527362,0.0051127004720207,-0.0082378287740623,-0.012695544770214,-0.0067130129636514,0.0023909503950358,0.0025929893147781,0.0022405741310008,0.0075468163461328,0.0038627660542871,0.0010835821212513,-0.0106390902731508,-0.00302603663269,0.0030551621462925,-0.000491766721597,0.0019335819837125,1.1779239228071914e-05,0.0004775116716598,-0.004677109317561,0.0012753317978918,0.00772770249051,0.0004503177651551,-0.0014583301274552,-0.0043502081502523,0.0009817310226685,-0.0021519728960013,-0.0008898989622481,-0.0029618995635122,-0.0008128808097795,0.0015580019093822,0.0131954893812969,0.0081844990827384,-0.0087840881025547,-0.0149254025457094,-0.0003239578435015,0.0009229794323445,-0.0018408515983132,0.0075920337437777,0.009129407565166,0.0041994008273999,0.0027341970923143,-0.0122480614030331,-0.0177787149611357,-0.0214083388880237,0.0071979969119791,0.0436010394134264,0.0305897056207374,-0.0039160922716965,-0.0260130643144898,-0.0342926929853118,-0.0129755551529833,-0.0046243956854623,0.0061170730138691,0.0082269178534025,0.0392107281221571,0.0415474285567652,0.0188925802703363,-0.0295709946428964,-0.0562810326263383,-0.08069747282999,-0.0383457669302542,0.078639800229001,0.1004831687392043,0.0366204722239226,-0.0050386474687655,-0.0344123375627172,-0.0519553587400535,-0.080842613796292,-0.0144108460345248,0.073243664047215,0.0521036987699524,0.0098653418053859,-5.784511900457963e-05,-0.0016106501025921,-0.0284248552136628,-0.0117258720934398,-0.0078278015476311,-0.0271302023257184,-0.0040225663611264,0.0246985706440065,0.0341465699657601,0.0541568856478664,0.0062283982816717,-0.0652279713831499,-0.1041818245527862,0.0269767663625633,0.0610581274185778,0.0462251629495758,0.0108340363657852,-0.0086845593452447,-0.0593815812164169,-0.027195424691848,-0.0301591691356678,0.078903213703032,0.0868986437011307,-0.0167083417542945,-0.0884313578927129,-0.1281139586542045,0.0919432405446883,0.1184742981265373,0.0268752030542805,-0.0641089405421754,-0.116035760607562,0.0279813342192012,0.0899175616202983,0.0252075022723291,-0.0539127008858213,-0.0343642876836756,-0.0293732083788663,0.0591629450638523,0.0442608203066156,0.0075704457075877,-0.0431679248579446,-0.0481324059404387,-0.0093681788521072,0.0307189875068638,0.0539095986848769,0.0259949436278389,-0.0426309535432431,-0.0520609692813666,-0.0380840925344293,0.0348618770016376,0.0585368845389268,0.0379322228149605,-0.0055261122935449,-0.0182156866132674,-0.0525475953804769,-0.0792060566024056,0.0141489214747909,0.081065205367584,0.0557303245500075,0.0075356888159917,-0.0225484042138686,-0.0223033022868365,-0.0310154519659289,-0.0681093660457315,0.036392229905958,0.0631194890762427,0.0009847053459494,-0.0149634369106701,-0.0036441231890439,0.024749541910902,0.0022685732756391,-0.0001637928038812,-0.0595330997752331,-0.0161323674302889,0.0092318147617706,0.0302336191869955,0.0334809212030708,0.0170083537352267,0.0021538818938813,-0.0272486676323039,-0.0592097468630726,-0.0264195112919778,0.0537494336075641,0.0443888752416621,0.0146639904059451,-0.018667305630661,-0.0314823556631222,-0.0188843059333478,-0.0080215085516604,0.0105701217956045,0.0272106534362981,0.0239015964182225,0.0060484596366939,-0.0057952365955415,-0.0363404625733341,-0.045316726656388,0.028842705335482,0.0349855357965521,-0.0019496619044922,-0.0140258885793703,0.0017893270240081,0.0138330163547431,0.004018931345347,-0.0060782737777573,-0.0008281800657074,-0.0056008999311004,-0.014103604976502,-0.0040639981973545,-0.00480178161467,0.0019141931574232,0.0115827614330645,0.0204747966107402,0.0193678607270444,-0.0012981341552386,-0.0105748520851818,-0.0177195441116845,-0.0168285549779731,-0.023576154724775,-0.0174260626254703,0.0172676754599982,0.0467759547465563,0.0407408580773472,0.0119003318161724,-0.0217545769440881,-0.0362639580823416,-0.0302697038029681,-0.0223589524161556,-0.0010527619536547,0.019945789971569,0.0349874765370271,0.0344502388906471,0.0112459986593332,-0.0184111713517122,-0.032908990480834,-0.0174842630905907,-0.0042791184250705,-0.0027734788784639,0.0015900208596757,0.0123890749092283,0.0190214693218296,0.0169530200918275,0.0067473957413048,-0.0076468193816987,-0.0191104123141775,-0.031687837668002,-0.0037562177597461,0.0100479751371286,0.010428727314505,0.0148892834359842,0.0155026644129279,0.0079678407764915,-0.0066316296345908,-0.0186493665099972,-0.0182523544946951,-0.0097368314360369,-0.0031767994887301,0.0135309349468404,0.0192443755016182,0.0185836898254679,0.0084144218150531,-0.0146516924596281,-0.0148511782534628,-0.0130621925985082,-0.0137859871243414,0.0010406921208979,0.0122563182034352,0.012652043847419,0.0128932678530213,0.007127144475877,-0.0040567840484412,-0.0107510510005633,-0.0118681243601419,-0.0066008001561045,-0.0044842314764906,0.0033702166008157,0.0113330810378309,0.0046362243430272,0.0067574377735476,0.0026193842852809,-0.0030832050069937,-0.0043834353326853,-0.0092080485995444,-0.0099160790092642,-0.0016384593972376,0.0111903666941871,0.0149025686722942,0.0064512493643997,-0.004556054964488,-0.0196839122802918,-0.0064276008218591,0.0078679203631528,0.0053649825507502,0.0020044502077321,0.000698747132922,0.0015358292310353,0.008956074649674,0.0029981575418183,-0.014677170323539,-0.034383302856573,0.0141012586077733,0.0259530738946942,0.0078587584879911,-0.0075187871088799,-0.0030795403406319,0.0023293676620951,0.0010465379577508,-0.0075433341856979,-0.0118749750511625,-0.0017110262567275,0.0057226922831582,0.0108371350493714,0.0071898234756302,-0.0001904536333025,-0.0060994290406535,-0.0024015936358467,-0.0002444841768894,0.0008728455707699,-0.0043798283056005,-0.0077702277659645,-0.0007846648755313,0.0086540373936047,0.0112700832658897,0.0050689734993716,-0.0076442417623207,-0.0079157535851654,-0.0053595095880034,0.0015750121602279,0.0076075412123924,0.0026446593606296,-0.0024587440381569,-0.0060077216977168,-0.0022984596921057,0.0013882437414541,0.0058219239269392,0.0055729469252927,0.0007163981968525,-0.0024809981123019,-0.0050691435831856,-0.004027151186156,-0.0017506635871811,0.0003991099164281,0.0035119615281354,0.0040583436777327,0.0020510520990696,-0.0014014274411784,0.0003548005609509,-0.0009248458691598,-0.0022579076189281,-0.0022771445839484,-0.0002908815865983,-0.0006949641279237,0.0031090341598863,0.0020456871939023,0.0012358104837054,-0.0014778479365252,-0.0018265171348262,-0.0004793858771733,-0.0005732123589379,0.0002413907334494,0.0003318951904637,-0.0015641007186147,0.0075790643944558,0.0051514680182061,-0.0065429762622783,-0.0083542999529378,-0.0079521274464855,-0.0005927329037021,0.0080355931467763,0.012215152986226,0.0041965317993502,0.0053632458909979,-0.0037606808053184,-0.0152095500598613,-0.0082026755579506,-0.0057317981228191,-0.0008672655361102,0.0068394205452147,0.0119377767549628,0.0111933615683793,0.0074448853767404,0.0006228624893699,-0.0067303905359741,-0.0162539457155961,-0.0267317910265678,-0.0025078145048027,0.0162262753534309,0.0161800496587132,0.0145090425470145,0.0084449488995379,-0.0026121435613251,-0.016738062993369,-0.0169421520337817,-0.0025067360911162,0.0060904113090282,0.0078541919625473,0.0030946679121514,-0.0017259646984615,-0.0030002876780822,-0.0019160678988619,,,
0.0059708360162937,0.0113971999745143,0.0127653725341112,0.0091957246980967,0.0017265212974091,-0.006879924076205,-0.0131423822917767,-0.0142876249149029,-0.0070073731522382,-0.0004987868647685,0.0090324821126106,0.014765022366375,0.0134107780802524,0.0039553410110731,-0.0117939195315309,-0.007476802515455,-0.0020755283137439,-0.0033472737026191,-0.0027768914663591,-0.0051038310653729,-5.042400990571796e-05,0.0075912556032419,0.0096884467980743,0.0071019699592006,0.0029753979803616,-0.0100842128667932,-0.0065492690988731,0.000653228996937,-0.0002127519616088,-0.0060673344503385,-0.0060918891723779,0.0018773876005804,0.0070903424526356,0.0095393197259929,0.0074571520866616,0.0006927669361042,-0.0019793669393044,-0.0053051117592814,-0.0092876399609014,-0.0099947716788961,-0.005382734466674,0.0030566828281431,0.0085650011730768,0.0118819758369835,0.0096964146437472,0.0041687149764606,-0.001717634558023,-0.0097774223294241,-0.0189474725303683,-0.0055075062308831,0.0033798915859166,0.0041819741846935,0.0065870280182502,0.0062156005364696,0.0006228895704172,0.0049213610408262,0.0045227518753906,0.0007784064549853,-0.0073002962438243,-0.0115086721706287,-0.0101370954784678,-0.0121740774292969,0.005123388785483,0.0220000171115473,0.017454211725354,0.0078480438413422,-0.0043113396748989,-0.0119191033435689,-0.0159659017382267,-0.0116248994337184,-0.0037983512561868,0.0061363211900297,0.0131914396998193,0.0138936313640805,0.004629766272796,-0.0049132987812832,-0.0017281399848798,-0.0034716564011836,-0.0075268174517312,-0.0081416839747619,-0.0040822306542782,0.001037408196951,0.0033659566616938,0.0095955197926599,0.0105130070647584,0.0096077036741067,-0.0004622688925209,-0.0089488655642192,-0.0172450297712753,-0.0117888503538405,-0.004459412695006,0.0074897091052055,0.0147941445663405,0.0119634398616318,0.0035600828349306,0.0024989077539172,-0.0070888160512108,-0.0115544687186956,-0.0091641462997227,-0.0032877264711586,0.00398710154008,0.0047587078236571,0.0034979316273744,0.0045325763584443,0.005154408351043,0.0050401874335847,-0.0040769282260606,-0.0065248189418413,-0.0087621351658751,-0.0085557599473855,0.0037155236870542,0.0062970108107382,0.0079132596001486,0.0029832346283812,0.0027373194797686,0.0007500347598726,-0.0074837302748381,-0.0097265690202974,0.002574780613546,0.0024226642769041,-0.0026185667201047,-0.0047992872437998,0.0049989675871609,0.0205418994732254,0.0091016139107516,-0.0121696257302517,-0.0252596053909641,-0.0117217949814279,-0.0017457264135881,0.0207451280697476,0.0211911166245222,0.0100084520976474,-0.0060636349499211,-0.0117952662679738,-0.0160403870422426,-0.0088073811332014,-0.0004364899556503,-0.0028594815651946,0.0104214294872348,0.011192114559261,0.0229554694191297,0.0099286841049873,-0.0066645303248721,-0.0203891853521169,-0.0248461828492904,-0.0204390708329341,-0.0090660842015594,0.0088620419176815,0.0497860646139392,0.0377368625209457,0.0216477573023887,-0.0150667756270529,-0.0561344560050704,-0.0735119424464641,-0.0131857738566004,0.0322548879092658,0.063687358838665,0.0620667993509655,0.0307489680149914,-0.0317193342075598,-0.1300270585824613,-0.0664299841864863,0.0785486711832817,0.0708671732504157,0.0410258475829196,-0.0048978832878991,-0.0388083179154254,-0.0470252914228261,-0.0365333566898903,0.0083053936021477,0.0452620191076132,0.0539576331950512,0.0312450646865746,-0.0124852170725757,-0.0620991118629232,-0.0723810510614,-0.0322818310758775,0.0668675302683393,0.0690106660393792,0.0334131997114795,-0.0111422089937752,-0.0409360826318475,-0.0054599286934015,-0.0170356889577856,-0.0350339596741672,-0.0171523417303714,0.0352488034806424,0.0540445167946107,0.0141061589736988,-0.0338642233484549,0.004862090768204,0.0061657478675087,-0.004460456585419,-0.0272211313397338,-0.0201075197337711,-0.0026539814585027,0.0067917968816192,0.0172776912032792,0.0539498664823441,0.0202873351598579,-0.0455144893169148,-0.0448390531076755,0.0055967919748612,0.0129082460725719,0.0056862770611881,-0.0025883056965984,-0.000877138842349,0.0034539309596683,0.0043161447961092,-0.0063905251837357,0.0137283466461805,0.0243517940148541,0.0008772037273143,-0.0366419028759338,-0.017223015664041,-0.020989787230406,0.0109051785276673,-0.0024337075549805,0.013694040430738,0.0640039506692557,0.0372810003040839,-0.0035056426928972,-0.0498438620462553,-0.0847515893041873,-0.0933826090778437,0.0325760963007822,0.1313474387148066,0.0978144509654768,0.0278735928946166,-0.1065656669714782,-0.0821938795338488,-0.0154500274548511,-0.0151083353298732,0.0779581851372211,0.056987114456346,0.0082617013508737,-0.0836823720870123,-0.0730540528549336,0.0494010315360822,0.0507487968181116,0.0845993596740542,0.0100069914382428,-0.0942965807760507,-0.0021304848832371,-0.0809665297323448,-0.0610291359173692,0.0498616953116303,0.088914851032729,0.0982641390733977,0.0289126469488591,-0.0486637756487252,-0.0548688109802548,-0.0505242106990278,-0.1425593325792406,0.0541082329439621,0.1353294525208617,0.0075180787281495,0.0185418745364136,-0.0364844429141553,0.0109528670252641,0.0389626645920537,0.0019554249489785,-0.0519306875817751,-0.1028658011853737,-0.0498384925208137,0.0751415840091955,0.0641240438082278,0.0530144611044979,0.0523886640075436,0.0015767946894218,-0.0330998151144622,-0.0890725148893619,-0.0908179947252398,-0.0488691635893965,0.0601829426132365,0.1153398615784487,0.0968543028025126,0.0118662896108098,-0.0874254772833005,-0.0506665880202466,-0.0162061300474558,-0.0350640011585013,-0.0039527317507156,0.0237248188607894,0.0406876249730099,0.0431357193596733,0.0127063322551727,-0.0159985480251154,-0.0264216820678717,-0.0143473343063463,-0.0267040526226701,-0.0257634339451282,0.0313338605262316,0.0225910790203346,0.00800050097515,0.0153341911210661,0.0065305258902749,-0.0068861342189618,-0.0251003565294881,-0.0144186442576717,-0.0021604646383746,-0.0112701726397591,0.0110725787276554,0.0312788063204988,0.0169918039879068,0.0031167281590713,-0.0132276192682156,-0.0284593455844023,-0.0266649630971451,-0.0015064152416635,0.0341518136765924,0.019731447881144,-0.0148026346643639,0.0076803450300279,0.0240951986420627,-0.0037187373530316,-0.0411100806585881,-0.0253610106106463,0.0160460344895659,0.0152197510644263,0.0022295983330666,-0.0189259259089556,0.0120163408863535,0.0508479078892331,0.0221291543580716,-0.020348041782554,-0.0438374894616379,-0.0625324538618024,-0.0268060614091019,0.0608321877331644,0.0598005502966085,0.0156115724774366,-0.0120085559425235,-0.0130507659468902,-0.0072169284551956,-0.0035673121156659,-0.0280014014299636,-0.0274820455792564,-0.0069768473341978,0.038665722160457,0.0507303932246655,0.0048614261699082,-0.0165146251738519,-0.0191891738352176,-0.0211327726264805,-0.0065630932529682,0.0105979392012223,0.0224695854697647,-0.0031398553175527,-0.0155778475410237,0.0050010546750305,-0.0197679046683984,0.0072436726705528,0.0408102462032613,0.0108745698324866,-0.0346905138636248,-0.0107262895020608,0.011208082772482,-0.0025239492218341,-0.0146157980526744,-0.0183027089397353,0.0159382264364099,0.0269841598818464,0.0079861276276654,0.0128097001998213,0.0029416457462304,-0.0242040135949676,-0.0404855280663045,-0.0156156808763366,0.0289515027272832,0.0260263697701644,0.0063855203762309,-0.0033204837911673,-0.0022717208119297,-0.0046915555795763,-0.0078262046438707,0.0100293654557087,0.0088888282302666,-0.0123789162242754,-0.0357965033371333,-0.0126150691132447,0.0330122220015704,0.0392821754038548,0.011586796028012,-0.0022176658393243,-0.0344045034403195,-0.0223854102751581,-0.0062872726456918,0.0047029555599162,0.016272704879985,0.0144091616212105,0.0028113006153998,-0.0022593617212074,-0.0042055623844747,-0.0051913571772005,0.0063769724908885,-0.0026213716154131,-0.0073933578771631,-0.0096593036855134,0.0025794360464292,-0.0003689099794763,0.0134955538882268,0.0106904237520244,-0.0042476348036044,0.0053626039674355,-0.0017709807784723,-0.0147770229055073,-0.0159421875027707,-0.0082897691814556,0.011796148304603,0.0198195838621976,0.0146649875942849,0.0018446551883954,-0.0060075013629534,-0.0125158296516114,-0.0138553532326157,-0.0136217656681411,0.0113817643158851,0.0153755108063521,-0.0005713935892103,-0.0048509796949959,0.0085876337849894,0.0144842397214715,-0.0049962709901258,-0.011719589559079,-0.0101427733774403,-0.0060678957993587,0.0019358214188432,0.0044807984055506,-0.0041917531864774,0.0001579002845622,0.0220188946987378,0.0159860607276628,-0.0019984440959095,-0.0177606318646051,-0.0177568358493263,-0.0109257009421398,-0.0011239933209917,0.0064601272913143,0.0150234935284281,0.0173368293927032,0.0063324050105532,-0.0108450271016698,-0.0159287127869629,-0.002658982227791,0.0002408134539349,-0.001870627247496,0.0108097574206912,0.0034243431222474,-0.0145287168330077,-0.0016496026422951,0.0112023544659802,0.0094834890564709,0.0018698849022864,-0.0066210051168048,-0.0069870144523155,-0.0070235173229885,-0.0045130546961553,0.0074290140199268,0.0019967680072723,0.0087342491257665,0.0045908961383779,-0.0020137620721112,-0.0045381802301936,-0.0027831939786799,-0.0057220144674782,-0.0056040998894562,0.0005803299284509,0.0048433165748939,0.0101343802291627,0.0051123671229101,0.0008265451341758,-0.0046803008944533,-0.0064100460402081,-0.0028470083596959,-0.0032873026250624,-0.0053037257445581,-0.0056005396145521,0.015954447406131,0.0160806804500501,0.0039866219330434,-0.0044771065328227,-0.0131654561616579,-0.0130632258599456,-0.0049120405824564,0.0053553815280202,0.0096371965405279,0.0063189620623957,0.0033030687372418,0.0026090859215956,-0.0024351323147755,-0.0049146932427514,-0.0070291517092051,-0.0053017899867878,-0.0017269623204632,0.0046392826034283,0.006404120551598,0.0069063845723358,0.002736711862654,-0.0030976088019172,-0.0057734359615829,-0.0031047091446167,-0.0003942164675784,0.0002258619595199,-0.0009460216092054,-0.0015303188603721,0.0007314714421163,0.0026255724074992,0.0058447934292069,0.0048648719948349,-0.0002526610820341,-0.003749842302226,-0.0068721093142609,-0.0059127550012404,-0.0053460459278304,0.0041398558319334,,,,
-0.0019095544280907,0.0031191714428774,0.0031888412361906,0.010096217531267,0.0032577342634219,-0.0095264250586546,-0.0136067171358636,0.0045126388839316,0.0048609769995478,0.0040328841278111,-0.0014793455775087,-0.00231876424307,-0.0039822405858512,0.0041836748473055,0.0052679339389957,0.0027626253410733,0.0025749230838742,-0.0026383850934794,-0.0111702988673571,-0.0165760496120666,0.0056201720138882,0.0130341763566029,0.0097548828152504,0.0065649197632032,-0.0014734220185106,-0.0050634150608215,-0.0101072255426597,-0.0075374581826599,-0.0028867580923827,0.0035388511342551,0.0090098792582852,0.0075423322430087,0.0029890003432402,-0.0081202660482321,-0.0055861417668684,0.0058338787985531,0.0027643986895673,-0.0023737520168209,-0.0062474941700747,-0.0078171009838635,0.0003505680741703,0.0081081501097448,0.0105243173954975,0.0034111644527143,0.0006736284094879,-0.0069783785091382,-0.0152335524428853,0.001102002281057,0.0061878684617263,0.0046275599867297,-0.0012702867105956,-0.0010693476443703,0.0002744635997791,0.0030669121720955,0.0034904383021323,0.0006540564904428,-0.0035121402383571,-0.0092832502347619,-0.0110894763888725,0.0102024496016583,0.0132624960898349,0.0078505440284159,-0.0025832582034355,-0.0084120260325386,-0.010362056871543,-0.0048088918486891,0.0021283319767543,0.0062821392028536,0.0078737548382193,0.0047859338691253,0.0035413478059882,-0.0026366393637904,-0.0116709184406447,-0.0108958135535019,0.0022999073312677,0.0050490483922558,0.0041025226309446,0.0022081029272406,0.0046125606846543,0.0029978408575044,0.0026074021239461,-0.0049993579542928,-0.0109242905248437,-0.0072118219760674,-0.0014292656903563,0.0050364534319382,0.0076918173228702,0.0095233518619647,0.005177190000018,-0.0013704908360123,-0.0076505479866639,-0.0085258023195153,-0.0057867767131699,-0.0015799800541802,-0.0004426871734307,0.0049487619706631,0.0023994172721553,0.0107323911006566,0.0139744197264544,0.0029603323800896,-0.0110787435458693,-0.0184895568092797,-0.0163130742265042,-0.0053090307685885,0.0075973706780661,0.0162547324290059,0.0176917321831951,0.0076853523313425,0.0025807935045897,-0.0092475072243647,-0.0135181040549559,-0.0107009269625691,-0.0094877782270525,-0.0037603780208795,0.0043211029698101,0.0112693075172813,0.0134194552845595,0.014125461826799,0.0061889909808635,-0.0077388086979308,-0.0159657956819368,-0.012644879754955,-0.0049583069326088,-0.005922056847529,-0.001606732029938,0.0144689028712234,0.0132991491195174,0.0076066836565409,0.0080477990572486,-0.0019321851967882,-0.0101475880209852,-0.0107942571076639,-0.00868312405463,-0.0086502516901531,-0.0148162118887575,0.0197496883492573,0.0292874656787653,0.0072073856885573,-0.0075286509653716,-0.0008844759596292,-0.012928449354513,-0.0110000870643204,0.0042078490467719,-0.0081152936006446,-0.0001312074767285,0.0124157507479967,0.0070528160526203,0.0159146798183429,-0.0156733055727841,-0.0351182160031532,0.015448137895338,0.0346004576777736,0.0209844532341919,-0.0225987804113708,-0.0406829629054872,-0.024970801096529,0.0038459063823107,0.0423020731782742,0.0297533615375704,0.0052580524896532,-0.0060836464090359,-0.0198118397351703,-0.0220203067886685,-0.0172272772872027,0.0155828135993874,0.008770957851757,-0.0150647750025737,0.0247954865013652,0.0246972849475787,-0.0012890788727379,-0.0172727713439357,-0.0210342199748,0.0005031928913641,0.0109241729467665,0.0067986210401645,-0.0331231313288278,-0.0062691199857549,0.0253447500621893,0.0299080031517186,0.0178144970670119,-0.0105433584199888,-0.0175953599618493,-0.0265735662155082,-0.0260778165438274,-0.016022648784995,0.0294232274321159,0.0512397881836782,0.0547057375157816,-0.027408474824239,-0.1183966127563787,0.0410529968919365,0.0483406781189765,0.0159140081909276,-0.0625525902097241,-0.0461505025270151,0.0366976345694705,0.0624041312246053,0.0214741733722487,0.0040423407541199,-0.0228024398978603,-0.0623520043703864,-0.0436932164514947,0.0212035625890361,0.0529996597899164,0.057018861388827,-0.0090606083464493,-0.041791896220533,-0.0400175625845622,0.0194490124850453,0.0150419706279602,-0.0040377694945676,0.0024874180620431,0.0231954169039727,-0.0037330030777706,-0.0555423730948193,0.0148931910737524,0.0371363557113544,0.0061860735543604,-0.0274060331774402,-0.0053152681228196,0.0136304011709931,0.0018726195364882,0.0126925250151583,-0.0132819080765006,0.0084855747249788,0.0005819064674967,-0.0660225667057522,-0.0172485717287007,0.0583005765676635,0.0607848769135462,0.0244250501971119,0.0023834688223455,-0.0374723426823389,-0.0916565551070462,-0.0802699197391825,0.0246071144256163,0.1329177977150713,0.0516090437663758,0.0113989782677623,-0.01028953474452,-0.055998520884125,-0.0601687976103836,-0.041349176032416,0.002863377697547,0.0555319479419288,0.0409695548501315,0.0362548925435313,0.007137963240898,-0.0071634749231567,-0.0657036121311368,-0.0461843276928148,0.0202246080123941,-0.0178693734150553,0.0663524466927363,0.061193600926549,-0.0107022512094537,-0.0873828407672098,-0.0486823708921045,0.0376431060042165,0.0756546868734268,0.0356716064794582,-0.0542086853846953,-0.0899402325842492,0.0289868274996396,0.0501142521666311,0.0352468659591057,-0.0109853181103311,-0.0350707389474395,-0.0473792383648917,-0.0077041811258817,0.0525552599770806,0.0694398789838493,0.0008767507870291,-0.0634150359399679,-0.0519627774586382,0.0002107263816354,0.0441488080032002,0.021245451037842,-0.005444165849847,0.0025024147151237,-0.0005500705230323,-0.0068330551011221,-0.0460883794053181,0.0274864845507888,0.0342032876784529,0.0072506488046726,-0.0207046266399801,-0.0337941303297077,0.001021045040259,0.0151893936878413,0.0232161980884646,0.015876123798962,-0.0299646880619505,-0.0246858496993292,0.0099743057755165,0.0357794858707588,0.0119992098491741,-0.0279482535876573,-0.050953712935599,0.0278204456527598,0.0288977460616522,0.01217192716348,-0.0146091207960362,-0.0165332102872556,-0.0111671820342273,0.0193637828049586,0.0215267681498008,-0.0171409181377059,-0.0177544824711715,0.0186936019846452,0.0091847749437675,-0.0172259386648426,-0.0272109086185356,0.0138250089984082,0.0261559942428118,0.0155111659493361,-0.0190672304654699,-0.0120446972255184,-0.0045580101923794,0.0031918573260761,0.0278145645927332,0.0075730000872834,-0.0280936243381628,-0.0390803016063584,-0.0139041443550823,0.0359959105185233,0.0508151893626547,0.0183382343839788,-0.0203658616073593,-0.0420635522360473,-0.0130659686209793,0.0113400164510042,0.0117300362119643,-0.0047199090633405,-0.0241730269208907,0.0067578870300645,0.0284831407008684,0.0137081933016167,0.0224716036358945,0.0003584487117383,-0.0251950649800195,-0.055308664564092,-0.0274520025679385,0.0218440555765494,0.0411368344923714,0.0304899743880861,0.0044611523557422,-0.0026752543058438,-0.0025549316592534,-0.0278044932182569,-0.0226854020755023,-0.008088031808435,-0.0027186582653415,0.0190580627629318,0.0243350468938266,0.0139745634473059,-0.0033909594706127,0.0012521365944724,-0.0059822845094882,-0.0187982492668017,-0.0161545081343672,-0.0115809580182574,0.0039030005722981,0.0181776386631784,0.0224222584886523,0.0134365953898078,0.0003788320853389,-0.0129507503130423,-0.0162681611680836,-0.0155876440816159,-0.0035903165550369,0.0087467366339862,0.0074148391956537,0.0085942736908825,-0.0056102474721057,0.0028326699705232,0.0175101357580463,0.0040840341642358,-0.0129278894391614,-0.01700907748565,-0.0113619524335218,-0.0013338681073377,0.0061846793530707,0.0081596176300376,0.015572347785662,0.0126363591337866,-0.0052238888477375,-0.0093154487939834,-0.0111181404195619,-0.0077954910337819,-0.0093544589393067,0.0060219626936821,0.0126123738929736,0.0099681321205686,0.0080338678603143,-0.0010635031962258,-0.0160750339615281,-0.0052713702243419,0.0031248381746224,-0.0004951331536681,-0.0086155856651737,0.001235101085593,0.0090320229875224,0.0122072947550237,0.0073234936896452,-0.0027648468394129,-0.0160266377268799,-0.0076817534110123,-0.0028445982721818,0.0006542002446408,0.0044617274003611,0.0039924062287802,-0.0019771568610823,0.0130373281582452,0.0133997311806378,-0.0003230396570252,-0.0129277419427462,-0.018520528640287,-0.0138568601878056,-0.0039516516386335,0.0082772079432286,0.0163927286754479,0.0195114590412909,0.0146300288394853,-0.0022208721604181,-0.0164832468094203,-0.0185527729381934,-0.011098531551808,-0.0094458250152904,0.0006260550804749,0.0119766938560674,0.0131750582540258,0.0159325507070676,0.0131270865786701,0.0018218422953511,-0.0061842461834286,-0.0180127926051035,-0.0281756518300468,-0.0217971400968936,0.0060724758458143,0.0198184279708249,0.0272106981543212,0.0202258943165826,0.003065917995528,0.000392581202996,-0.0103175521749761,-0.0251142468729209,-0.0280108790112487,-0.0155860757069735,0.0123042337508506,0.0217323236863548,0.0241722887740626,0.0209465283705338,0.0049371749996963,-0.0110991863456791,-0.020735342625733,-0.0199789858962242,-0.0074575636634495,-0.0051488401135309,-0.0035042493748908,0.0174528811250061,0.0226887588739718,0.0173225203576753,0.0051503497452538,-0.0088008000495914,-0.0191038547645844,-0.0190418253985834,-0.0116119440706699,0.0004056588415804,0.011322745242748,0.0114521889349771,0.0175108656185302,0.0075579128141778,-0.0106233074937126,0.0022681622752119,-0.0065936899611973,-0.0152767105477716,-0.0096351001136068,-0.0021875382161793,0.0044655944952392,0.0109833264584725,0.0152684244685209,0.0104771107235854,-0.0032094874865791,-0.0111375108262972,-0.0152845811721881,0.0042024632657223,0.001206084065036,-0.0070206952646808,-0.005757835536813,0.0081760697866889,0.0104380951220759,0.0065044792805044,0.0015491886981319,-0.0007819473543719,-0.0014829757224471,-0.005498309038791,-0.0026267546845605,-0.0140071870558998,-0.0090534432056184,0.0070429728526717,0.0138342052062608,0.0118890973637671,0.007217428881534,-0.0001321259783901,-0.010185133027074,-0.0070979218919763,-0.0075677347714093,-0.0026863630317485,-0.0052062126842715,0.0032149988541782,0.0110817629617278,0.0110743254729948,0.0027553108754418,-0.0011974022059091,-0.0074913589778445,,,,
-0.01250515957056,-0.0023417461863363,0.0173363425503704,0.0143473008378855,0.0020433928788187,-0.0108147079710189,-0.0107799667647542,-0.0023683120606429,0.0050488725997525,0.0020695367388157,-0.0053630667079221,-0.0006418753412421,-0.002231072727875,0.0118685085912082,0.008673980929108,0.0006967030130476,-0.0029859924632525,-0.0077052140290398,-0.0111652980695132,-0.015236798971915,-0.0019505488864557,0.0263246548247083,0.0207499850287786,0.0026455090735156,-0.0096422166020764,-0.0159152882070862,-0.0040621000126292,-0.0037016766876528,-0.0023242778668939,0.0019006434828403,0.0022486786957485,0.0091596627903725,0.0097777158308747,0.0046698898128299,0.0006169012090596,-0.013058291377515,-0.0191528685318105,0.0020573258853697,0.0077817823404201,0.0074397533680572,0.0047366791931485,-0.0058528691735978,-0.0077776883729692,0.0039366221851223,0.0117893347234706,0.0048715066823522,-0.0055009445223547,-0.0109118786138367,-0.006309466709431,0.0010329092415324,0.0048696912793442,0.0044213318379078,0.0020958451237862,-0.0022022877598364,-0.0007772712706532,-0.0005119264801429,0.0033322482565024,0.0030432287134244,-6.211484446114487e-06,-0.0019558716632507,-0.010329653695138,-0.0043845629008803,0.0043292806260466,0.0044934413056833,0.0036196721783975,0.0017732677142581,0.0019659906681064,0.003091201547581,-0.0035470538294334,-0.0053205144191305,-0.0044378175157691,-0.0002789946746511,0.0013314591052654,0.0010446849307667,-0.0013607284650899,0.000990700082902,0.0081114937223808,0.0055311913296233,-0.0074033182793732,-0.0032155772279118,0.0030439007806116,0.0035197132649333,-0.0073144535310522,-0.0111230417880159,-0.0031469514291533,0.0053691093641039,0.0081084926709845,0.0122562739205267,0.0095143585508722,-0.0047369652566334,-0.0064371549754369,-0.0185626004733178,-0.0061057490687147,0.0016701351789115,0.0034628886524404,0.0118224687014791,0.0062375757985725,0.0037499264839974,-0.0083933175978207,-0.0047614155735341,0.0007648886594032,0.0081855753782168,0.0065238925705354,-0.0072736005299554,-0.0124487928278939,-0.0091567570132025,-0.0121574357610826,-0.0048857582638727,0.0336075045212802,0.0351382173218098,0.0115195977551863,-0.0214647009580705,-0.025817754483765,-0.0133742549674782,-0.0264450432342515,-0.0112579368113409,0.0280258334880055,0.0368546613767118,0.0249232100556067,0.0041134148478408,-0.0278222446691063,-0.0242756847695982,-0.0088007910216208,0.0048398050295865,0.0047965933847133,-0.0104035643908962,0.0064489727868963,0.0251074913214556,0.0060358330832487,-0.0095434448228199,-0.0054629890082402,-0.0056643085653558,-0.0089403728584072,0.0075805529673516,0.0012833890465488,-0.0028166807764205,0.0089121907305991,0.0013761749796957,-0.0023427566804924,-0.0092492706983972,-0.0049413774842887,0.0019928123844909,0.0130270911746616,0.0059007279462296,-0.0035788772489301,-0.0025479327532606,-0.0048875249946621,0.002226051081688,-0.0042133199027877,0.0021956366631298,-0.0105881968934828,-0.0131625588273137,0.0194176775364449,0.0227189505294054,0.0089926177929754,-0.0164963243854362,-0.0225435364618114,0.0095333762119306,0.0037029240808361,-0.0057613499122057,-0.0099437558737009,0.0074247930077225,0.0053080416335277,0.0030912793942114,0.0040516485860771,0.0112680872949145,0.0030296179913468,-0.0166163958004221,-0.0136633745197527,-0.0104101782096085,-0.0027990492027262,0.0193149864694948,0.0258632692508849,-0.0022268727327972,-0.0105613537757851,-0.0180401491632106,0.0038346534100371,0.0071567460747775,-0.0062293808033107,-0.0008594760754366,-0.0007157487996993,0.0119554767331614,0.0070644820116319,-0.0061514182797514,-0.0209037202387298,0.0074009204910012,0.0194286773092839,-0.0054443175654678,-0.0047229017808282,-0.0162255381573332,-0.0176669215269811,0.0264461080609369,0.035184730709669,0.0198133563016124,-0.0273689958904293,-0.0642621618977202,-0.0245517105420892,0.0466389650471615,0.054507626965541,0.0112632572214092,-0.0385943309179619,-0.0194092262591966,0.0069841139349097,0.0028867727936959,-0.0034283398686132,-0.0017136418112014,0.0023042957595087,0.0017098739457238,0.0020045118233587,0.0070047687305356,0.0134423571108401,-0.0059618182986371,-0.0251818798299194,-0.0056764811326932,0.0113075734577142,0.0120342423792005,0.0046457535188133,-0.0052269121818121,-0.0145515249178396,-0.0004610477078227,0.0065379749231602,0.0086205785914498,-0.0014820160776649,-0.0051088296632444,0.0095578960684259,0.0085969450487736,-0.0064624679484352,-0.0277936874390098,-0.0076917046630651,0.0010738030722072,0.0169923237449035,0.0221700351177262,0.0198807621299633,-0.0085954320687021,-0.0262650471257654,-0.0154218512727748,-0.0051168469934866,0.0087421805451997,0.0106461692343901,-0.0099389985555458,0.0091598821067218,0.0123903379811025,0.0071519154332318,-0.0030446558655142,-0.0117760790251636,-0.0038922548814044,-0.006946420062668,-0.008628761864522,3.338207814685462e-06,0.014054089129575,0.0129950406084764,-0.0027063915884591,-0.0157785178431005,0.0101188568921776,0.0217092253110238,-0.0046389371566116,-0.0282574391555037,-0.0134070886725805,0.0091098542146955,0.0072597199924162,-0.0086758746892601,0.0128451398104891,0.0231649690465192,0.0032802619938821,0.0035753572719702,-0.0232012983806216,-0.0425438302020748,0.000595396258048,0.0214484802145937,0.0260503625755387,0.0256787383548377,-0.0115243561231245,-0.0347097795343715,-0.0092431855149908,0.0136304052824678,0.006678958298484,0.0045912601430398,-0.0078448606743136,-0.0012136070248262,0.0085980835381159,0.0010329439174378,-0.012610724086368,-0.0154606081004431,0.0230209369170116,0.0191326084198973,0.0023271331917883,-0.0124559619326198,-0.0198354115076058,-0.0076354446508598,-0.0120501049357852,-0.0019434978614396,0.0307927264185931,0.0369287976547902,0.0123550813780832,-0.0175526915163973,-0.031048087017233,-0.0360885565866864,-0.0076971442586884,0.0154176918852579,0.019903510508673,0.0134181666744206,0.0207248459596171,0.0160431225072939,-0.0106854768919574,-0.0278157610984646,-0.0220875229605353,-0.0115274869674187,0.0027937316251772,0.0050172699991335,0.0141938642056119,0.0283184169386068,0.0177007907175646,-0.0114651580276916,-0.0209439156859905,-0.0140434428082524,-0.0074776080852031,-0.0064441605633734,0.0055277676993563,0.0151709802322029,0.0163596238200197,0.0041803425140204,-0.0058454247464272,-0.015635253954866,-0.0141191174240812,0.0022709517273966,0.012818216330223,0.0162684528629012,0.0053097560094792,-0.0060527513330121,-0.011217523973496,-0.0399378548846643,0.0049672222344998,0.0350287684746263,0.0165216146475994,-0.0138898442976361,0.002354945390871,0.0194435394491359,-0.0002765275638045,-0.0329993054386959,-0.0332675095987847,-0.002235736214218,0.02269472296554,0.0310828820141519,0.0199271856307517,0.0032791546134117,-0.0138233596880657,-0.0256740152155893,-0.0149162505593839,-0.0173114399474569,0.0071982767773355,0.0293467353550127,0.0285707248924515,0.0107290587568796,-0.0146480211173913,-0.0369597559900889,-0.0271409395846978,0.0083427758673608,0.0219233436269966,0.0252339865178149,0.0160037441003043,-0.0032560359220857,-0.0196479824524613,-0.0263575974533432,-0.0117837918123228,0.0072596826174885,0.009765593581523,0.0213168257746487,0.0097367657357564,0.0046141242719913,-0.0077722162511203,-0.0233059045412386,-0.0083970744244615,1.1776897373561958e-05,0.006033219516357,0.0146610920786071,0.0004803052560371,-0.0060332321365213,0.0048276972495761,0.007522439956317,-0.0010823513876699,-0.0154003233421232,-0.013483430464415,0.0045121310739313,0.0141129788673577,0.0093295382549394,0.0029811464148363,-0.0050459186704309,-0.0070751752944914,-0.0085954583934172,-0.0037100140947364,0.0026684341895757,0.0106974628516749,0.0075539438514083,0.000116860516656,-0.0065835892243653,-0.0055461359513305,-0.0030865671741732,0.0013010043140171,0.0073094504641115,0.0030039213173287,-0.0030658295879441,-0.0061628630701413,-0.0034000233830263,0.0006199917054125,0.0039916279355306,0.006155758093545,0.0051201587658922,0.0025411320832139,-0.0050040943275137,-0.0091578696398034,-0.0096376341163725,-0.0018191756335332,0.0061292645865529,0.0084194686645089,0.0068625340473817,0.003592018481577,-0.0007526906106847,-0.005574445262925,-0.0074572986779111,-0.0033676897677465,-0.0002643694438594,0.0016988932791869,0.0020530513350633,0.000146416549983,0.0024768242768879,0.0034823854605941,0.0027243938019548,8.220088193058907e-05,0.0007964500528461,-0.0041265548337202,-0.0061948878720996,-0.0044491152887235,-0.002520278338108,0.002213595066971,0.0045910421233567,0.0078734459796554,0.0029101082664449,0.0023049874696429,0.0007701803190716,-0.0032185460288403,-0.0076105285593236,-0.010245413414317,-0.0048897622423245,0.003467767765286,0.0059699393786727,0.0099666079416319,0.0085871304699194,0.0038278434850345,-0.0034768651133088,-0.0085606007025893,-0.0116180575385904,-0.0063235815057497,-8.510637430101589e-05,0.0028341521889754,0.009948789061749,0.0091256240674678,0.0070727211485579,-0.0026839738736216,-0.0080354819836701,-0.0062711638552867,-0.0054470732932924,-0.0033407454609314,0.000111876395828,0.0070239862631046,0.0076888091119541,0.0041970503252789,-0.0018905100786746,-0.0004284729009599,-0.0032566395391493,-0.0042346751338818,-0.0043742401481479,-0.0013122900677794,0.0021891337651932,0.0018356933120209,0.0026967015117655,0.0043705200568189,0.0049717365179043,-0.0008374592205593,-0.0055628817841309,-0.0060614757351555,-0.0019799775496886,0.0004479110202966,0.0012303754905869,0.0013084943545879,0.0016073135413757,0.0022260443997318,0.0023393413487672,0.0033551444071589,-0.0001934691635317,-0.0051209950724253,-0.00480096400903,-0.0022149526366604,-0.0008282281089589,0.0014462811129779,0.0026737773230405,0.0027489557651474,0.0042261719215828,0.0009109969516823,0.000218526873875,-0.0042447737921175,-0.0105191191060826,0.0034034856544475,0.0081377212571774,0.0030939574941625,-0.004158179725614,-0.0048416153727663,-0.0027735231808281,0.0006252866659124,0.0016890120808916,0.0041571305497553,0.0024976570748969,0.0061949943355004,0.0010296821296967,-0.0024688898609057,-0.0081418351101569,-0.0081150672868722,,,,
0.0019425722496797,-0.0036392748952105,-0.007788500434433,-0.0089070883641583,-0.0065977938783379,-0.0017765527688225,0.0037077543845104,0.0077852311819052,0.0089352071279538,0.0067311374229834,0.0019776266156097,-0.0035859165447222,-0.0079028013982256,-0.0093354545128865,-0.007272675706008,-0.0023831440347181,0.0035886657163477,0.0084163011705257,0.0101810962267042,0.0080168705240313,0.0025555076910993,-0.0041617161472712,-0.0094043019011697,-0.0109052203631689,-0.0079372964614969,-0.0017322150347241,0.0050464139196814,0.0095463279089189,0.0100388897650599,0.0066177397219564,0.0009759672857226,-0.0045163287720809,-0.0078755367626637,-0.0081894490129001,-0.0057236103232614,-0.0015867190330885,0.0027630480049786,0.0059556322478296,0.0070192742400781,0.005581590858795,0.0019828037316129,-0.0027186278850704,-0.0020486692761643,-0.0042518624747339,-0.0059957464206746,-0.0052718964512031,-0.0007321231582355,0.0034599274836682,0.0058662089460276,0.0057970353529519,0.0035467487941051,0.0002197764102995,-0.0027915449979114,-0.0044117072304035,-0.0042598538912051,-0.0026538874539807,-0.0003351445588957,0.0018635236442887,0.0032430346950749,0.0033409731012483,0.0019734015363514,-0.0007567302876633,-0.0044858898109879,-0.0012519198380853,-0.0004097727434959,0.0038463296055908,0.0044237499289865,-0.0006035866137948,-0.0037369265920348,-0.0049202010685207,-0.0047664983916323,-0.0016191102186076,0.0034938739444876,0.006928236615568,0.0077639758007028,0.0054868364807557,0.0001549512790836,-0.0074180430119218,-0.0106465321271423,-0.0097001494799969,-0.0047010671076796,0.0050041464428375,0.0107958983937464,0.0113600130545317,0.0068786927544226,0.0036035369365244,-0.008711993383874,-0.0144892125936778,-0.0026030775446096,-0.0057211919918094,-0.0007500472669541,0.0018500022241234,0.0068609219697693,0.0124802080306082,0.0096903989154664,-0.0005357148996084,-0.0021365108967894,-0.0243844504872952,-0.0108774474326898,0.0079585652098007,0.0016070407116522,0.0108851488221223,0.0134054214140499,-0.0028433936007794,0.0011580291580146,-0.0029710938503946,-0.0141830903119329,-0.0193341574970569,-0.0032318800707515,0.0267240295410039,0.0202466686411658,0.0043763629643665,0.0034662030355551,-0.0161327984330618,-0.0276073021293074,-0.0159122362143984,-0.0080479896868423,0.0260646565738034,0.0321354723960481,0.0152463564846989,-0.0019888520173556,-0.0066031381419922,-0.0120907851086528,-0.0216112985178441,-0.025219300316,-0.0286819160543004,0.0277683110233651,0.0452156008186919,0.0341262959766272,0.0138713089827251,-0.0112635758339182,-0.0385013157971829,-0.0336445073053319,-0.0244569768893477,0.0006336027029984,0.0208123317339625,0.0353734486299676,0.0264378795586006,0.0108165505495462,0.0034417346045515,-0.0245401972808729,-0.046085669621051,-0.0429628041132906,0.0213855946406733,0.0449154522426773,0.0309353405771919,0.0110196510755842,-0.0209571745671578,-0.0408032354687089,-0.011547109244507,0.0157284410516226,0.0229900106701571,0.0267140085853403,0.0001146690478707,-0.0218849736939415,-0.0615290845351329,-0.0232514222763629,0.0591264791718624,0.057035718253877,0.0224485696749232,-0.0405910556709611,-0.0509240392735252,-0.0032944173634773,0.0173462016983095,0.0049244169642396,0.0020810724587852,0.0028902989495523,0.0120195045808992,-0.0001422582803012,-0.0032647261148505,0.0050254309523823,-0.0084834105421596,-0.0190013998299705,-0.0074299341842908,0.0092370397387137,0.019786715499707,0.0095123433582117,-0.0028845530590925,-0.0008417527905898,-0.0031213479323211,-0.0199114299768051,-0.0105984352475423,0.0030800103077726,0.0129588117554875,0.0231405640290353,-0.0108195934114059,-0.0106612302140165,0.0146569358938965,0.0169710717884643,-0.0123712412066742,-0.024957830463622,-0.0214378460777288,-0.0219074884344588,0.0270871948766762,0.0511510830217346,0.0171265418051251,-0.0118612462551785,0.0016885839947673,-0.009016201316818,-0.0666124803305769,-0.0023780773364554,0.0019694117063234,0.0298832346694199,0.0355748400585481,-0.0009509023144068,0.0199686274549457,-0.0064947299852162,-0.0165342189328423,-0.0489918915862775,-0.0069746493655571,0.0018416443789119,0.024169149699676,0.0360918714358233,-0.0014995501679454,-0.0039039678219653,-0.0172225151147346,0.0134292830453524,-0.0203622203787388,-0.0363601400873313,0.00673479026148,0.0708178942668812,0.0318299851070063,-0.064591351173433,-0.0576865829348277,0.0235509168026231,0.0504760026635602,-0.0073150551218978,-0.0394960675731704,0.0411474700623374,0.0278678243077925,-0.0089832423804822,-0.0583576274930035,-0.0307586287331219,0.057880331443415,0.0444996290087805,-0.0238603796251976,-0.0695992826457281,-0.0087827333243379,0.0613935579456271,0.0417526914662904,0.0196180329844597,-0.0407431395336523,-0.0624171853455905,-0.0242942319381648,0.0556574344687285,0.01939684094742,-0.0201074043773552,0.0296537565489199,-0.0389293773078218,-0.0012943380871697,0.0127919970365674,0.0544490919440975,0.0127760225910337,-0.0671146597660637,-0.0553027918151924,-0.0115384803660436,0.0546109461930868,0.0448338133570581,0.0097000464204392,-0.0043397347484769,-0.0071005054256516,-0.0598368300770514,-0.0099266154008734,0.0307343943969294,0.0304055509121674,0.0292947361293565,-0.0366203387869743,-0.0390395622139865,-0.0025654111461185,0.0010461531361028,0.014936518852282,0.0467406060382611,0.0325666959734941,-0.0353293584497655,-0.0294474118167,-0.0340509238480389,-0.007754583125281,-0.0135958334039937,0.0369611742810709,0.0621317761235415,0.0148665849030286,-0.0062866267243061,-0.0145972408586149,-0.0812318446022622,-0.0379392228520817,0.0105990240284181,0.0714624647421593,0.0530509549194123,0.0091027470617599,-0.0070796773842636,-0.048338692518515,-0.0497191652576943,-0.0344873446335603,0.0298902968730962,0.0663245624684107,0.0475336517909308,-0.0155363282681907,-0.0672189058025655,-0.0229159675435366,0.0279659767883232,0.0202087470587333,-0.0087420440681181,0.0079863958141142,-0.0081928608023438,-0.0146085334113796,0.0082929527372375,0.0074481750901629,0.0110259486997212,0.0231435549020934,-0.0196382176271439,-0.046233550208043,-0.0131272079050819,0.0157009433727293,0.02831993817775,0.0471923047787384,-0.0068069485601131,-0.0331371878972861,-0.0137632929339696,-0.000728317759796,-0.0139549964674252,-0.0172384982799701,0.0033910796160284,0.0235413313079404,0.0512506609669416,0.0405636830011251,-0.0229811558499305,-0.0858934526116007,-0.0355121286527798,0.0158534020713144,0.0207433986072576,0.0272357467009833,0.0293983807295447,0.012498183369691,-0.0041344809878329,-0.0275584537180145,-0.0389876700962377,0.0034475587777104,0.0131573526134523,0.0047686665247502,0.0007510202278301,0.0012984671964081,0.007166533341341,0.0221341794506153,0.005875972856409,-0.0168522891369408,-0.0260167237405703,-0.0135760101997787,0.013441869016497,0.0128592811362895,-0.0016953099462868,0.0022250276013522,-0.0001254047120816,0.0029504899516103,0.0121565155764521,0.0016990675974378,-0.0078446801259782,-0.0222333848088057,-0.0064704071209808,0.0054961352003754,0.0077505401375124,0.0045381170014499,0.0133980904163633,0.0069177087004186,-0.0028555002973048,-0.0108076063100145,-0.0155768728583244,-0.0112230831434524,0.0043646987888542,0.015126472332198,0.0158398809690734,0.0051084872001361,-0.0080088751868519,-0.0064708530455466,-0.0079536822879665,-0.0093279731020898,-0.0075352030044755,0.0116887558581433,0.014024048699668,0.0055303171283461,0.0091279556038292,-0.0039491657417385,-0.0172086435917799,-0.0051740139557203,-0.0046250322994109,-0.0038914610527611,0.0038589030297276,0.0071387757058021,0.0100468589430569,0.0082547275613351,0.0039916145591844,-0.0041905568760352,-0.0105030493149879,-0.0139279633861343,-0.0112086944417824,0.0061190289659138,0.0097944653662179,0.0103282327240085,0.0078173313972498,-0.0008980090945978,-0.0041160945799369,-0.0049205498655247,-0.0029769158984842,-0.0027008319098289,-0.0037309999907131,-0.0010966550678458,0.0022938707923124,0.0049279288418094,0.0047864279843896,0.0029227780564532,0.0016704544633304,-0.0043773736728089,-0.0041923303679942,-0.0043049887543167,-0.0030030668851413,0.0005766976721764,0.0051870686811886,0.0042619170862112,0.0024977518034546,0.000447030351538,0.0007957474881274,-0.002385577517467,-0.0063309570614404,-0.0058928676295704,-0.0054873539300308,0.0016162373533788,0.012771582726085,0.0117901332877509,0.0064512351219223,-0.0017090392496446,-0.0124030622325058,-0.0133778484976904,-0.0150760097371707,0.0045301292600631,0.0124885509154384,0.0086425283074657,0.0074564411682314,0.0056949174037448,0.0021848218205406,-0.0051493105969302,-0.0110228523557524,-0.0116708686178916,-0.0078233331204916,-0.0022260972983087,0.0089760833196969,0.0149760471275763,0.0089186195289657,0.002929673377817,0.0046111534953732,-0.0067305494323731,-0.0199691204906901,-0.0062905380793211,-0.0021141006947162,0.0052075228560829,0.0027513084052453,0.0001414265276756,0.0140657844169287,0.0118297491154952,0.0024952408700566,-0.0084003680204667,-0.017146470678003,-0.0106631052558453,-0.0114749518214492,0.0138531162464908,0.0172563783571657,0.009353314136913,-0.0016301354709526,-0.0050518753635864,-0.007243473160806,-0.0075514011926261,0.0049507566730004,0.0024681878630183,-0.008663329851622,0.0076784399565735,0.0058846070412928,0.0028188713349103,-0.0028285085306973,-0.0060005231946858,-0.0044733315840187,-0.0036341697582932,0.0003772751183849,0.0091840072892225,0.0105755602067221,0.0056157073963136,-0.002840792062068,-0.0138936592873784,-0.0210350570874801,0.0011798766113484,0.0130237779076991,0.0123359210694244,0.0071501841809002,0.0009347004420671,-0.0055198610890864,-0.0093486691609179,-0.0036393355925957,-0.0020718770590497,0.0007336329024961,0.0030875936325505,0.0044321865140614,0.0029203263886192,0.0001215025625179,0.0002300503411635,-0.0032015106230013,-0.0025994448181588,-0.0011330867131652,0.0003279453210325,0.0011885381302841,0.0013254278573504,0.0009710180652767,0.0004186033616202,-0.00021127578649,-0.0009659083947694,-0.0018298166912677,9.940443423641268e-07,2.4807713453897416e-05,0.0009228754058137,0.0018890415503889,0.0007317298885226,,,
