-0.0011473810837555,0.004791396899628,0.0090839282425195,0.0102228476465517,0.0077405021945898,0.0024612802582503,-0.0037112705625735,-0.008469150089714,-0.0100070810960147,-0.007775687145906,-0.0027219095077541,0.0031164567301805,0.0074810578162477,0.0088186124972141,0.0068447622116877,0.0025412447196761,-0.0023333648191024,-0.0059582482003913,-0.0071126461281721,-0.0055812438429621,-0.0021800725847022,0.0016186982302933,0.004330339823096,0.0050841605877874,0.0039245608129207,0.0016471696509436,-0.0006988473382556,-0.0023252032429591,-0.0029486586992881,-0.0026964478207164,-0.0018427769794316,-0.0006233890367259,0.000755014759467,0.0020004376052351,0.0027025002311352,0.0024821417269818,0.0012501468343338,-0.0006194254627261,-0.0023684632485396,-0.0031918417999194,-0.0026500813976953,-0.0009104722792041,0.0013175514046038,0.003096411380526,0.0036524752492407,0.0026857754209949,0.000502031072719,-0.0020767304859731,-0.0040122244627537,-0.0044626203895876,-0.0031357993161816,-0.0004270494286116,0.0027095830377122,0.0050939066518718,0.0057370196126333,0.0042169923492511,0.0008932672951019,-0.0031386818976863,-0.0063831678338219,-0.0074843071243394,-0.0057790907653624,-0.0016451574871755,0.0035204910195395,0.0077446547071126,0.0092365492957973,0.0071802642335246,0.0021889913962019,-0.003852383807693,-0.0085463291097877,-0.0100120355799794,-0.0076939726209198,-0.002565564180826,0.003345309234829,0.0078458772274604,0.0094403787042748,0.0077908062594378,0.003663265086105,-0.0014857652359959,-0.006025647422949,-0.0085918070166846,-0.0084050887818399,-0.0054786727725224,-0.0006750586045263,0.0044721793939802,0.0082059785991141,0.0091557497190497,0.0068795489680388,0.0020975002404659,-0.0035121037254559,-0.0079033527296525,-0.0094253357359193,-0.0074649261456157,-0.0027160300103871,0.0030439490784127,0.0076067990369406,0.009179613653782,0.0070911833533744,0.0020606599859559,-0.0040825823810946,-0.0065956476553952,-0.003785950036664,-0.0048495727485954,-0.0055810056025365,-0.0003575413167608,0.0041852343609016,0.0068122346137103,0.0069713126534902,0.0047785822800073,0.0009318454260148,-0.0034102509645355,-0.0068210688852675,-0.0079589139002043,-0.0060888630953126,-0.0015753435252552,0.0040013776324628,0.0083406706731362,0.0094118797242556,0.0064716367444233,0.0005496512892378,-0.0059092637251878,-0.0101138882944993,-0.0101858659260982,-0.003514165705841,0.0006567941914134,0.0069642435551246,0.0101958466668606,0.0089849824586418,0.0038885569577559,-0.0028717739430175,-0.0083967188997231,-0.0103950369412101,-0.0081626179226796,-0.0028059154849712,0.0058027754111806,0.0123176884129304,0.0097075667310859,0.0038358205452955,-0.0075772134278931,-0.0080981092545832,-0.0017142757538569,0.0002963457681664,-0.0024646716397698,-0.0021017859675795,0.0022905201971217,0.0014190961096558,0.0054133215986275,0.003178303151852,-0.0009622210412181,0.000992106585744,0.0003783093171856,-0.0047116505083899,-0.0097133915552127,-0.00563346267306,0.0046775308592287,0.0120547187722488,0.0100766563223186,-0.0006315308217479,-0.0102914330993214,-0.0075627483304205,-0.00051029065167,0.0002065422285928,0.0057038407143605,0.0012510722020012,0.0020141084886356,0.0005222392032392,0.0017265258668501,-0.0016417759733314,-0.0040937286137587,-0.0066229054010673,-0.0046268319266314,0.0010979763497432,0.013136820743568,0.0130261972870934,0.0031738244183586,-0.0132408554786135,-0.0167402728208867,0.0010482716218583,0.0045835515398336,0.0024580777024837,0.005064048930593,0.0009443639984033,-0.0043262185819547,-0.0010894702752116,0.0089132460022948,0.0039025671749123,-0.0030211881462827,-0.0074009330693011,-0.0063453310944565,-0.0035058309445169,-0.0029721171149645,0.0059491809401216,0.0106034376769501,0.0095608437633574,0.002274246461396,-0.004985989853095,-0.0087513117809906,-0.0097249915977475,-0.0048475699135449,-0.0038176841487331,0.0064030401293345,0.0133032786656656,0.0104265255397799,0.0038822843232633,-0.0006548332945997,-0.0102859774941522,-0.0155800834331055,-0.009629840934353,-0.0021164383312431,0.0126089949042828,0.0131152334283702,0.0094677807851154,-0.0012137672384057,-0.0043209840220512,-0.0040251017297264,-0.0065441624660913,-0.001094986464714,-0.0023935676147439,-0.0019821487215269,-0.0044242575859811,0.0030452419776017,0.0052312374621482,0.0106695460101849,0.0112091394821525,0.0011521759130098,-0.0116782899377635,-0.0083328225939611,-0.0090213283365202,-0.0069410490440606,-0.0024717717485888,0.0070816918180086,0.0124795918457078,0.011746945248092,0.0052030225642426,-0.000465247341538,-0.0060021828446627,-0.0105598895835899,-0.0133413471501981,-0.0059239864342341,0.0019165935337545,0.0067501576389633,0.0161621747852931,0.0110844622892542,0.0008331885109154,-0.0067131110863546,-0.0124931526098666,-0.0111675134542996,-0.0024104726596404,0.0063976014716005,0.0056968049401579,0.0085994363897168,0.0051471575925018,7.783883622308527e-05,-0.0054237396228393,-0.0067502833017284,-0.0103290852279973,-0.0035643564644105,0.0060252878410217,0.0114096346564881,0.00993184669546,-0.0014270625203639,-0.0030596344038169,-0.0064271547786115,-0.009117948321277,-0.0001217000862507,0.0026049158877527,0.0020649352569299,0.0021188181135486,0.0020540937188677,0.0036868101309246,0.0014363442675682,-0.0013370979617901,-0.0041750957438431,-0.004162625231716,-0.0011402179024119,-0.0012318851981083,0.0039973576010915,0.0055498066348248,0.0016667752625264,-0.002371610221047,-0.0030920066397883,-0.0025428392446118,-0.0021240657386086,-0.0009247843426775,0.0030424278659556,0.0068639173340156,0.0062363624315293,0.0012177768818803,-0.0064268931648148,-0.0140063839432919,-0.0067784155700601,-0.0004168899974297,0.0092488420073488,0.0129195473941041,0.010533465037675,0.0032180266867808,-0.0061180524695159,-0.0155692211241926,-0.0154284683454649,-0.0072022211398217,0.0056362158154578,0.0157049801195562,0.0176812750008664,0.0101870647515434,-0.0031502756797851,-0.0141456344949873,-0.016262291671403,-0.0119793692205279,-0.0021805906411636,0.0089411027398954,0.0157399699439981,0.0139400881226751,0.003027412386279,-0.0032331661390266,-0.0077894845533394,-0.0116734659186225,-0.009741867948806,-0.0048262689509808,0.0017720535213512,0.0129219996752539,0.0124472139938529,0.0060443730356581,0.0035843089458514,-0.0057617586620345,-0.0124528260058978,-0.010784379509387,-0.0087039094291015,0.0033931612326247,0.0110821593163443,0.0121352957887971,0.0073215526951421,-0.0003133777087075,-0.0070083293405401,-0.0074487558879394,-0.0083304496307654,-0.003418678108307,0.0023097219271982,0.0063763063705741,0.0072776364979724,0.004939909180115,0.0005965356746101,-0.0038052598997157,-0.0064229715658564,-0.0037593495751742,-0.0035518701759256,0.0003895466161269,0.0038417375846243,0.0054346940074337,0.0046473286175689,0.001914419839911,-0.0016045202881246,-0.0044717013699068,-0.0054905442770562,-0.0041640317483127,-0.0009491656918071,0.002833084989161,0.0054876060954696,0.0057017514281152,0.0032362116634535,-0.0008402467789794,-0.004583510171472,-0.0061269265733672,-0.0046716289783546,-0.0009502037604475,0.0031354415315002,0.0055242934434067,0.0050845977005512,0.0021652830312523,-0.0016671137441394,-0.0044946703144182,-0.0049982667454965,-0.0030198337615952,0.0004447535423038,0.0037263777723576,0.005214825536535,0.0040857243579072,0.0007431414472364,-0.0032644858393863,-0.0059105613809408,-0.0056904811072269,-0.0024651803169208,0.0023377995457856,0.0063531044275016,0.0074676937426126,0.0049490145059048,-0.0001231821356777,-0.0053752583677753,-0.0083199940630911,-0.0075599760483206,-0.0034130438024864,0.0022939841240975,0.0070948764526878,0.0089682678043729,0.007154809152929,0.0024066590808125,-0.0033663259340381,-0.0078710452532733,-0.009323660548937,-0.0071319683293671,-0.0021130817323624,0.0038305899250774,0.0084341379091643,0.0099046964156393,0.0075779847136124,0.0021974534416281,-0.0042803031986447,-0.0093411714131134,-0.0108634096288728,-0.0080253417457462,-0.0017688666392797,0.0054498503137436,0.0105974251201515,0.0113521592562229,0.0072146811893768,-9.726097629927928e-05,-0.0072853574676639,-0.0109950243790621,-0.0095362675372819,-0.0038308723869788,0.0030637886526246,0.0076587587199561,0.0079588124617463,0.004443816116162,-0.0004353903508796,-0.0038458354775303,-0.0042277737932787,-0.0020439348395578,0.0007469438041816,0.0020838595619907,0.0011467865367428,-0.0011987987026609,-0.0030858346109947,-0.0029427755705365,-0.0005386005557439,0.0028523287901333,0.0052122996944391,0.004985666767328,0.0020260750640015,-0.0022538025651184,-0.0056209707068931,-0.0062419228021324,-0.0037070636417189,0.0007071233398471,0.0046892025488173,0.0061198382703368,0.0042291766524185,5.9095376790176854e-05,-0.0040550035224594,-0.0057544914278995,-0.0040056329896131,0.0002577348129721,0.0046138751297434,0.0065051864844874,0.0046820821839967,-7.933308932149018e-05,-0.0053596379435434,-0.0083434903862749,-0.0072699406016723,-0.0023582955900369,0.00423706872776,0.0094183800235706,0.0106124703205266,0.0070179165835831,2.9586040939743855e-05,-0.0073706676328949,-0.0119590758368666,-0.0116953912775448,-0.006574230055516,0.0014166863439169,0.0091229129543233,0.013451905470834,0.0125578566921439,0.0065927876753635,-0.0022535623010947,-0.0105101456664784,-0.0147743618227713,-0.0131531859496301,-0.0061567000194564,0.0034234133989176,0.0116627378009588,0.0151846283582126,0.0126043355270295,0.0050813203934692,-0.0042449728083383,-0.0116368799055337,-0.0143052987330953,-0.0114516100858766,-0.0044290682747675,0.0039362663884095,0.0105045329718146,0.0129843376310441,0.0106909102884432,0.0046755304701536,-0.0027662063891245,-0.0089804612508243,-0.0118830439296168,-0.0106054228615238,-0.005692040178501,0.001141071877819,0.0075701096613315,0.0113945088229722,0.0112526003862498,0.0071106108786832,0.0003348399679403,-0.0067258498007797,-0.0115339551394762,-0.012260107014703,-0.0084651656695156,-0.0013343432206016,0.0066267727993543,0.0123892415478438,0.0135114210069147,0.0092170504767697,0.0009574985843658,-0.0079578860423576,-0.0136938968464609,-0.0136553898315751,,,,
0.000398492901039,7.48089138410413e-05,-0.000686948971464,-0.0009628410621651,-0.0001738498891034,0.0014677069279391,0.0030513661174309,0.0035345951118964,0.0023915542037194,-6.916177860282383e-05,-0.0028646448164632,-0.0048125094279941,-0.0050369561438863,-0.0033062624902721,-0.0001341775613098,0.0033604141777344,0.0058215518654103,0.0061747915687454,0.0041127839414443,0.0003124213409984,-0.0037687885068001,-0.0064745073289704,-0.0066659202215979,-0.0042378273706149,-0.0001789592983386,0.0038612938117033,0.0062943922079232,0.0062581339857258,0.0039224857096401,0.0003283558548731,-0.0031154753112364,-0.005216990204335,-0.0054160761331326,-0.0038870074118621,-0.0013319083014159,0.0013904099712607,0.0035843183838492,0.0048296273037516,0.0049001134992425,0.0036595302160926,0.0011170098390642,-0.0023397741162399,-0.005738867900329,-0.0076468900913184,-0.0067618584084049,-0.0027552273837247,0.0031729156645396,0.0085384471954311,0.0106845277966425,0.008217842999986,0.0019103284499215,-0.005537082427221,-0.0107882267386221,-0.0115026731043408,-0.0074159593890538,-0.000355710685538,0.0067019494192515,0.0109701419017726,0.0109327068784456,0.0067717944251351,0.0001256959917959,-0.0065721845485765,-0.0108922039959799,-0.0111734583679925,-0.0071313324490589,-0.0001132793957925,0.0072246331987119,0.0118704414246841,0.0117360237096951,0.0066794062675328,-0.0012853319519827,-0.0087778811806053,-0.0125293694843535,-0.0108789241521105,-0.0045771800182523,0.0035221247534602,0.0097810400789042,0.0114875571602101,0.008109318292326,0.001467149856284,-0.0052324843493189,-0.0089877794992438,-0.0084059040553145,-0.0042371863947241,0.0011806646676475,0.0052173858708999,0.0062608191356789,0.0043618538452226,0.0009537461401472,-0.002086976730428,-0.0034519928913705,-0.0029385495113214,-0.0013007392504351,0.0003793778519929,0.0013452674626539,0.0014538795169505,0.0010166098991257,0.0004225048828179,-0.0001310367304503,-0.0006292223360838,-0.0010414669630807,-0.0011794398948986,-0.0007887532892961,0.0001808618518661,0.0013740967105749,0.0021238180686262,0.0018421232673605,0.000459726649952,-0.0014139303227174,-0.0027716914086266,-0.0027913187905781,-0.0013572528244591,0.0008229485854784,0.0025999661046422,0.0030382400269747,0.0019521474731038,6.563239285245634e-06,-0.0016777140958101,-0.0021942298038511,-0.0014140344704191,-9.494356627919056e-05,0.0005645378455269,-0.000307718728512,-0.0026082104755348,0.002235920685745,0.0033776299921754,0.0018334219039037,-0.0006663577868144,-0.0007957262859879,4.290720117160058e-05,-0.0011201687811592,-0.0034405998996886,-0.0027239643570117,1.777811410305618e-05,0.0005700228233096,0.0025542910224587,0.0062898321541058,0.0066998483789152,0.0018786139818773,-0.0086495609942184,-0.0088525792051322,-0.0081902819656344,-0.0057043868689995,0.0086269036372866,0.0140243735722695,0.0100984135315776,0.0044680590698675,-0.0023925023577138,-0.0121753447842864,-0.0206970152981733,-0.0061545188276544,0.0073833900760581,0.0098553867151284,0.0131981436548463,0.0121474781515628,-3.000820938293937e-05,-0.0124252547368434,-0.0137200185432399,-0.0048429532694856,-0.0003881631095556,0.0007905356162777,0.0082551723971705,0.004969706329657,-0.0001185858691095,0.0061384541753777,0.0111003091203677,-0.0030408198592754,-0.0194618056313086,-0.0250554351402503,-0.0034265133745098,0.0198305261086504,0.0277024773277212,0.0170522414396774,-0.0030287146559418,-0.0249692815320168,-0.0315985813501251,-0.0085738658607454,0.0167051228871926,0.0249200898159864,0.014991500450283,-0.0042684764339812,-0.0079148267093757,-0.0069400904468492,-0.004036557279082,-0.0084129851134795,-0.0022949766226119,0.0027084488400228,-0.0006060894982146,0.007506501651829,0.0143298228767487,0.0047115893572582,-0.0023617891318009,-0.0017373013306075,-0.0096232311544522,-0.0174158770464519,-0.009872075502465,0.0051321863821532,0.0136049776726198,0.0120250018634263,0.0092449477350955,0.0080989953448445,-0.0055613305525904,-0.0123698055511201,-0.0163123816611668,-0.0114532176312312,0.0020413251592967,0.0103192342937211,0.010461534527307,0.0111049117015607,0.0038641172449301,-0.0019720324415711,-0.004378141484114,-0.0090094191017719,-0.0101853344189125,-0.0026158835716928,0.0004455940676905,0.0040209058832738,0.0075661654047093,0.0069009920053301,0.0051567231324013,0.0014045509909768,-0.0021869226088091,-0.0076234027901536,-0.0106529234885248,-0.0089791862542387,-0.0039423632247843,0.0071916791546973,0.0185309279761593,0.0169220477839017,0.0034954816455715,-0.0091820841193857,-0.0188457696754536,-0.0204396275498119,-0.0013147315919696,0.0071347758962837,0.0142933326285063,0.0141184307133744,0.0076994302060522,0.0020471121303307,-0.0071045087100498,-0.0133852029870778,-0.0148269428149574,-0.0102092521315565,0.0004325383087753,0.015302935243189,0.0184309250071674,0.0079511047081694,0.0029533766084245,-0.0081435096077832,-0.0033373631602382,-0.0119880150795269,-0.0131548150500684,-0.004619450082756,-0.0011796959454096,0.0076908740557037,0.0198168698996262,0.0182534235026026,0.0075270809680418,-0.0088370145165834,-0.0200299165428718,-0.0211107768133472,-0.0095527181377943,0.0032221016767736,0.0105240534755497,0.0170152081807665,0.0167263488734672,0.0072821010013568,-0.0039478382751943,-0.0149666373370292,-0.0197437269146564,-0.0091444732003551,-0.0007251244623051,0.0074072379271549,0.0164242252408989,0.0111752267802394,0.0003094722936399,-0.0048878261325007,-0.0030233249513154,-0.0024245241143915,-0.0035257173525959,-0.0046861622624535,-0.0093629475553694,0.0029384168900143,0.0052372876279605,0.0064801100853177,0.0056106006103055,0.0055637060201339,0.0024719183798781,-0.0057597941058794,-0.0072827546853262,-0.0067366952618375,-0.005371833998285,-0.0035110320453907,0.0026571701890903,0.0097462794107266,0.0077774099906192,0.0087990853944109,0.0022189311018737,-0.0058870919833948,-0.0065534691902031,-0.0092244246817577,-0.0086831669093452,-0.0075939852177494,-0.0004565601727886,0.0190037122589827,0.0226451307907383,0.0117860520622017,-0.0107621694976696,-0.0193347030772217,-0.0154457685555579,-0.006936389655684,0.0005782799582005,0.0092340167892109,0.0122596618776239,0.0136350129932276,0.0066860483008696,-0.0029001067894686,-0.0100980033832277,-0.0135290547222689,-0.0126485829561215,-0.0065130423053884,0.003107313103224,0.0148399710277244,0.0193090405462053,0.0135496329281404,0.0024494791242552,-0.0134455078230804,-0.0215607253837792,-0.0167632841187808,-0.0028665986013542,0.0050360990354905,0.0129351107578069,0.0153224305857505,0.0124766396384878,0.0027681605299679,-0.0049756113752112,-0.0113287101464377,-0.014424922991644,-0.0118134780040095,-0.0040470289741957,0.0057105030686756,0.0132441032375696,0.0152493478402549,0.0108203697489403,0.0018358828941881,-0.0078824317472332,-0.0142295567386863,-0.0145601460417987,-0.0087859740434301,0.0006118802532437,0.0096532492985784,0.0145570350646756,0.0133291215996293,0.0065540359564245,-0.0029093777372151,-0.0111353826126836,-0.0147166673615149,-0.0121256696330779,-0.0043617640619314,0.0053805822061571,0.0129641571337347,0.0150453692037412,0.0105797107935919,0.0013923269248865,-0.0085262953621989,-0.0147596226592021,-0.0144775641873964,-0.0077725527284621,0.0023484488043671,0.0113397863207513,0.0152084653998078,0.0123250152645199,0.0041150548514353,-0.0056590981594561,-0.0126598856597171,-0.0139417444643651,-0.0092121476673414,-0.0008353235308289,0.0073602180206906,0.0143424150239315,0.0108639014174401,0.0051050806050687,-0.0026971232249545,-0.0089972082047779,-0.0110521084195152,-0.0081351251941132,-0.0017830400857692,0.0050025367626999,0.0091742255679163,0.0089913592533413,0.0047180335657238,-0.0015771410102819,-0.0069789562038238,-0.0090172186525742,-0.0067536085782391,-0.0012105420615051,0.0050497349492824,0.009045037717777,0.0087421063347307,0.0040759556758516,-0.00289349904221,-0.0088534423647216,-0.0108001506241898,-0.0075473810296903,-0.0004021590198531,0.0073705063825354,0.0120571784144366,0.0112632858835347,0.0051059545083703,-0.0037418886252698,-0.011225244989806,-0.0137987817981265,-0.0101434155087304,-0.0018373389384208,0.0073840129105893,0.013401526988898,0.0136071506522414,0.0080050568005069,-0.0009153040314369,-0.0093537027777682,-0.0138282419022163,-0.0125751155332603,-0.006201285756311,0.0026182619560874,0.0102549488725735,0.0136098484968409,0.0113748986472119,0.0045559031458474,-0.0039660838761502,-0.0106552703866557,-0.0128070329654297,-0.0096670318856638,-0.0027078336092047,0.005050422094286,0.0103694440219612,0.0111753432166672,0.0073836289024374,0.0008330590611132,-0.0055913060748488,-0.0092299042406372,-0.0087684267193872,-0.0047374242419987,0.0008233397314466,0.0053785469059715,0.0070897331371006,0.0055928109609267,0.0020079551444124,-0.0017515153826369,-0.0039692106590551,-0.0039182432418758,-0.0020991072026462,0.0001565702255545,0.0014913970091749,0.0013000715893466,4.063522887096283e-05,-0.0011121147848623,-0.0010726300803056,0.000389703487968,0.0024270027284347,0.0036043745800757,0.0028188221114433,7.09791632209853e-05,-0.0034052826214771,-0.0057582470802064,-0.0055335487896986,-0.0025180005675738,0.0020504362798013,0.0060282067585548,0.0074145155441963,0.0053960262704511,0.0008387381534751,-0.0040940649760154,-0.0070546280635828,-0.0067444777977503,-0.0035391951160104,0.0008457622473165,0.0043731695713648,0.0057136688160088,0.0047119375203007,0.0021681493781923,-0.0007500489808282,-0.0030311746933456,-0.0040615522147098,-0.003658286553245,-0.0020511498353706,0.00016176256371,0.0021735613572212,0.0032643848975664,0.0031001064501052,0.0018531572867986,7.864012095844792e-05,-0.0015605068836139,-0.0025536273113857,-0.0026719225030636,-0.0019581262957448,-0.0006449518209375,0.0009206038269363,0.0023175575699629,0.003087750932992,0.0028316013554046,0.0013921210545908,-0.0009359591182184,-0.0033275243041586,-0.0046401329325009,-0.0039447181605784,-0.001155991870399,0.0026538537546401,0.0056099957665178,0.0060092459561506,0.0033721535808599,-0.0011340205105762,-0.0052484716290704,-0.0068489286868179,-0.0051173707605945,-0.0009554616373928,0.0035461505658831,,,,
-0.0045739367320277,-0.0047082137030592,-0.0025048348998253,0.0002951615434033,0.0019216038135573,0.0016462993459527,9.805205295963008e-05,-0.0012843683319735,-0.0012616685006438,0.0003677117016691,0.002606363624059,0.0038695173477108,0.0029976852986403,5.0323483596013975e-05,-0.0036126221833033,-0.0060316853310931,-0.005737991056326,-0.0026055240488611,0.0020239999833168,0.006005412077298,0.0074594639366863,0.0056745444149317,0.0014117236133412,-0.003480779996657,-0.0069153579134141,-0.0074708155674581,-0.004964733430455,-0.0004760034555596,0.0041477397345403,0.0070560894213043,0.0071171854786728,0.0043338998291693,-0.000173468082536,-0.0046006010533261,-0.0071601629827951,-0.006800551042097,-0.0036573407755799,0.0009716890374627,0.0051509789815689,0.0071308196504859,0.0061158382265141,0.0026201526037622,-0.0017801724031659,-0.0051972219856962,-0.006307983330252,-0.004897145507903,-0.0018057502108278,0.0016052741590144,0.0041037915073119,0.0050018191164149,0.0042326010932583,0.0022033705685506,-0.0004111175165757,-0.0028469260786257,-0.0044007408323476,-0.0045778680157784,-0.0032394073608738,-0.0007063820822984,0.0022502321274864,0.0045924693148317,0.0053648249441628,0.0041056228696552,0.0011361341386863,-0.0024568795067248,-0.0052114327293898,-0.0059180499664529,-0.0041900422477996,-0.0006869780643951,0.0031296374462847,0.0056138103330174,0.0056713290308014,0.003291864120858,-0.0004019285786112,-0.003676542973386,-0.0050639399673432,-0.0041183672247957,-0.0015900133023551,0.001101063587989,0.0027354693160256,0.0029236979192621,0.00211289546673,0.0010622686593704,0.000242073527521,-0.0003940808839109,-0.0011466918222788,-0.0020882637732378,-0.002792137737571,-0.002535209554901,-0.0008721113497127,0.0018289462589592,0.0043318692017075,0.0051181784074351,0.0033296214911889,-0.0005237934496667,-0.0046198976688972,-0.006731737012903,-0.0055167076625647,-0.0014214840034028,0.0033849291788891,0.0060882702247487,0.0047836378076244,0.0070473406723642,0.002746299328623,-0.0047805363736395,-0.0108429610942899,-0.0099716413677508,-0.0034532673037494,0.0035598383411867,0.0083235084431361,0.0091754252479224,0.006184204881734,0.0009831497754943,-0.0040736171474122,-0.0069790193916315,-0.0068725231932862,-0.0042636292515832,-0.0006502256800566,0.0022384525073106,0.0032100905917269,0.0045629414499266,0.0069357465869244,0.0041909237229597,-0.0003188685338914,-0.0060697472507174,-0.0057769155295425,-0.0045663085080212,-0.0027502812501936,-0.0006896803985863,0.0012410564760997,0.0026766135936464,0.0057457992192717,0.0098837490428245,0.0070764884089265,-0.0036097492248202,-0.0154621722265824,-0.0106371197808316,-0.0040872276251635,0.0067185505440395,0.0091361175166336,0.0075550624838844,0.0046689334324981,-0.00505692304007,-0.0166636017895747,-0.0001039415139184,0.0113277880641612,0.0073359590146756,0.0002338049672992,-0.0053986816541098,-0.0103631165608094,-0.0042219466822872,0.0045311337460438,0.0045847495887873,0.0040578435516939,0.0039145164630332,-0.0010559685954577,0.0006916280984486,-0.0033244830373393,-0.003948805808824,-0.0046393081992888,-0.0001634989492532,0.0034505631453532,0.0020213016936532,0.0035131915989006,0.0028788294281655,-0.0022739456032876,-0.0035500346543609,-0.0009434363355425,-0.0012851933603596,0.0007402047298004,0.0028537442296644,-0.0007506263621462,-0.0025221394338158,0.0025330977990904,0.0008635463237957,0.0014146248256651,-0.0001501818025106,-0.0033540748572773,-0.0032649322844515,0.0007756889246661,0.0042173821579879,0.0011984054637396,-0.0017867605679195,-0.0026081081111143,0.0029585114304776,0.0023589634644438,0.0007079805862432,-0.002046928857228,-0.00311976386359,-0.0009808681413374,0.0013382659378292,-0.0009263553072213,-0.0015040661293349,-0.0048112476353985,0.0060608955661589,0.0097358785050475,0.0045201460701507,-0.0005378198057004,-0.0056371984061989,-0.0054830598925377,-0.0085957294995313,-0.0066494933387623,-0.0099494610291836,0.002759689920124,0.0268167806140468,0.0269501743622489,0.0137970567926032,-0.0126085099642552,-0.0344304824558681,-0.0392691001794058,-0.0171150387965237,0.0232342607024295,0.0402943214998142,0.0307565677437351,0.0074130202083734,-0.0120013958551273,-0.0260848616414503,-0.0238619320353674,-0.0157905774124263,0.0031965034336644,0.0219392935366689,0.0203119833625961,0.0058390747262053,-0.0059718352244173,-0.0011934438752771,-0.0072170455607094,-0.0037099819823706,0.0013706219425192,-0.0025749771102796,-0.0160931860775375,0.008622773197563,0.0089921099480709,0.0028962895991716,0.0037182255771142,0.0023646829388676,-0.0022255877864777,-0.0016550324320241,-0.0104819654161538,0.0013610383701781,0.0056451758692538,0.0020572818576672,-0.0043307155314348,-0.0038747252934014,-0.0043502329546186,-0.0050552831579591,0.0147887308194874,0.0167180638902262,0.0078299326803958,-0.011590883789316,-0.0232822914331625,-0.0087700500329715,0.004804365351967,0.011426154894284,0.0091290429930028,0.002080710014149,-0.0129231737293196,-0.0061204660183456,0.0115896477095198,0.0076965725953876,-0.0022849821640717,0.0052482072910785,-0.0020559717866027,-0.0103892784890279,-0.0149904532782593,-0.0130328377133963,0.0109302000642622,0.0205875520121287,0.0121405549165221,0.0075140761649273,-0.0009680737796536,-0.0117915653657638,-0.0192708768376775,-0.0086471128534767,0.0008751295762111,0.0088290146129464,0.0034153720251441,0.0057075022160291,0.0102783016709142,0.0047793951091817,-0.0037044270429824,-0.0134926124744765,-0.0064229740477549,0.0037095734015235,0.0057707854477729,-0.0018080143649961,-0.0099899813596528,0.0015399975207857,0.0034112906208122,0.0060500012117324,0.0113530375419636,-9.722061148712907e-05,-0.0027943558458423,-0.0037802892682146,-0.0067486500631923,-0.011476402550987,-0.0039221403180655,0.0087969644223939,0.0067157895540639,-0.0028100196788832,0.0075633685726274,0.0111327234865332,0.0084180535279338,-0.0046997526338694,-0.0194192233511362,-0.023181053660737,-0.0095491587780481,0.0117574154007921,0.0233353251805941,0.0184616668788535,0.0088151417020708,-0.0021525217860944,-0.0201794022029967,-0.023573337075472,-0.0116908942638254,0.0064204354520841,0.0160970367678442,0.0161669985010355,0.0144842732032399,-0.0004525438478773,-0.0149047073034657,-0.0259288475805894,-0.0089816311040836,0.0098438282052267,0.018386736690431,0.0120774496419002,0.0033580057149446,-0.0061052121187697,-0.0115652115769406,-0.0093055236765628,-0.0080455620890438,0.0040907183045493,0.0123803954731352,0.0108373353025173,0.0039196276254413,-0.0029225737876938,-0.0135854887773022,-0.0065109588147224,0.0058939296766903,0.0045572746519381,-0.0005812597776572,-0.0042140393396935,-0.0029450384121493,0.0022432123752594,0.0052858871539305,0.0049452680312059,0.0068834638163278,-0.0011847689105672,-0.0122469805237885,-0.013340496528731,-0.0004002170782995,0.0075215636652006,0.0065822923970914,0.0051663306858789,0.0031791048984819,0.0008840840694756,-0.0052502119579157,-0.0055402355939383,-0.0019393240733727,0.000620582584032,0.0010593338346943,-0.0023146559190691,-0.0006336423286728,-0.0001059233666567,0.0076784935993528,0.0052125867175554,0.0002956930522784,-0.0020798427327505,-0.0051376561537916,-0.0034559990657901,-0.0037656172622062,-0.0027323632981356,0.0007226044085616,0.0071166234457421,0.0052237195976776,0.0019982982021213,0.0020763855251114,-0.0008131888768242,-0.0063699796197723,-0.0035952677892702,-0.0023035281740714,-0.0015417445414064,-0.0002805154429379,0.001796212333219,0.0040467662797199,0.0052593507192306,0.0044185103023367,0.0013989170341139,-0.0027958967925345,-0.0063791954797085,-0.0075686700975257,-0.0054768229203141,-0.0006793354666817,0.004878116605347,0.008683394572855,0.0088363759165951,0.0050232893729964,-0.0012269144924807,-0.0071732906473692,-0.0101097184097219,-0.0086388186531335,-0.0033499802358001,0.0034357260213377,0.008725786486998,0.0102066887436164,0.0072613922844021,0.0012172093635114,-0.0052596418953822,-0.0093439757957571,-0.0092873964317192,-0.0051728545019653,0.0011310554884108,0.0067892547739086,0.0092528558008627,0.0074253405157968,0.0022137896870906,-0.003855886432926,-0.0078545202727081,-0.0079172588955735,-0.0041786031651779,0.0013475339870531,0.0058670339063344,0.0072583402631439,0.0050902105017747,0.0007031566228755,-0.0036147525035519,-0.0058551300034794,-0.0052434459236326,-0.0024460790152176,0.0009875779190448,0.003531467113059,0.0043798560550571,0.0036001992471738,0.0018083076019323,-0.0002870295685516,-0.0021449125894113,-0.003390781665303,-0.0037266679738161,-0.0029510124908269,-0.0011152000562613,0.0013284551101209,0.0035604503031522,0.0046705535176712,0.0040747072784424,0.0018526554577515,-0.0012048819647933,-0.0038993497743486,-0.0051366085347526,-0.0043980937585942,-0.0019625437445023,0.0012006642386525,0.0038188756319983,0.0048418841571193,0.0038981953624761,0.0014702255455077,-0.0013197631148865,-0.003234358541398,-0.0035103805332817,-0.0022203928706455,-0.0002154816946806,0.0013407013644494,0.0016253763791958,0.0006496911090117,-0.000719045159793,-0.0012859182748574,-0.0003437029984417,0.0017392708705249,0.0036073289554897,0.0037197148789325,0.0014022274614903,-0.0025414984335365,-0.0061093730459515,-0.0071691023569018,-0.0047136500756239,0.0004364319124476,0.0059267557569272,0.0090384472426333,0.0081036871607064,0.003390838634548,-0.0030062303014413,-0.0057004026854575,-0.009926482281712,-0.0075799975202929,-0.0023659004475667,0.0033787919865597,0.0072676196477176,0.0078772123861828,0.0052758437911358,0.0008713208526799,-0.0033051607532703,-0.0055288323657529,-0.0051129879601556,-0.0026356400315268,0.0004298142979965,0.0025069024810233,0.002738359352234,0.0013972590711252,-0.0003531250703398,-0.0012185558948158,-0.0005979448073907,0.0010360225119649,0.0024424203622176,0.0024201089308969,0.0006166774545293,-0.0021711555605253,-0.0044083372857899,-0.0047110510415726,-0.0026811140046161,0.0008253547327495,0.0041569867955016,0.0057607693354162,0.0049624482988334,0.0022036489798496,-0.001307050064822,-0.0042177958774511,-0.0055514886408821,-0.0049382384913979,-0.0026174364184988,,,,
0.0042619682031202,0.002319703251417,-0.000586522152387,-0.0031280608571259,-0.0042624319367884,-0.0036308178937529,-0.001610977282593,0.0009212778554999,0.0029764913843103,0.0038197087818295,0.0032033945294835,0.0014186536017015,-0.0008259685167869,-0.002664424875129,-0.0034069633323657,-0.0028239950575155,-0.0012319320030867,0.000679675776023,0.00218001280451,0.002795837481628,0.0024380171221767,0.0013443964540431,-8.0674021731684e-05,-0.0014288244006296,-0.0023778017338932,-0.0026959069805389,-0.0022230316386214,-0.0009196545696912,0.0009959880575619,0.0029356540230512,0.0040363737253677,0.0035439689208453,0.0013238139320488,-0.0018539428448264,-0.004546739256529,-0.0053558332587192,-0.0037285280034881,-0.000335389351254,0.0032428557767323,0.0053460237435569,0.0050860794435199,0.0027298520269019,-0.0005549881966483,-0.0033563735211972,-0.0046509004394987,-0.0041169118503987,-0.0021106001399805,0.0005449895955227,0.0028373231424789,0.0038815670889425,0.0032586511989287,0.0012620995092813,-0.0011344163544346,-0.0026985162979058,-0.0026105991860425,-0.0009979729607549,0.0010635611624831,0.0021675544882218,0.0014742495902377,-0.0006813974665577,-0.0028962144083259,-0.003515908787736,-0.001707028102807,0.0018753163867017,0.0052957837085729,0.006388152722974,0.0040685072162569,-0.0008872479926274,-0.0061197382352618,-0.0089010784935916,-0.0075995609799959,-0.0025706180922575,0.0039851438351768,0.0090744872968291,0.0103174521578346,0.007043841021381,0.0006069836116864,-0.0062050755039668,-0.0104033208418081,-0.010143109601878,-0.0055739501806152,0.0012284092320105,0.0072513033627947,0.0099760461571918,0.0085080269658974,0.0038327063413302,-0.0018544801470083,-0.0062738786431054,-0.0079997897059778,-0.0068149560074451,-0.0035042801064583,0.0006260694717931,0.0042299223651417,0.0062796479122574,0.0062844036316924,0.0043643587506737,0.0011720791103533,-0.0023165410520413,-0.0050770295473339,-0.0063033504021425,-0.005614142179228,-0.0031609797865249,0.0003906983898129,0.0040151862588528,0.0065862954702723,0.0071908071976145,0.0054329054159936,0.0016487784132247,-0.0030719835379567,-0.0071427937401532,-0.0090024667607747,-0.0077448222146448,-0.003583583890811,0.0021085589183709,0.0072767915380559,0.0100022830166847,0.0117631826311091,0.0052571543158941,-0.0007694661866371,-0.0069970228230159,-0.0116670266347791,-0.0137143171987819,-0.0131122250566833,-0.0009375523440602,0.011690565240778,0.0185946985216576,0.0164572464736953,0.0102047847489356,-0.0020035885834038,-0.0124394980899148,-0.0159227886529735,-0.020448387051475,-0.0119248605303884,0.0026577311236308,0.0201408390141863,0.0206657783637792,0.01458058709272,0.0049638669025421,-0.0096677966561744,-0.0239428591863171,-0.0153202240290042,0.001308818572932,0.0196601468039944,0.007313358446452,-0.0124994068943192,-0.0124017408358283,0.0052880718565056,0.0097190966413056,0.0114596012484461,0.009237946324965,-0.003047034571918,-0.0091340833886369,-0.0080581348786987,-0.0126139948490771,-0.0083302916150591,-0.00072498178254,0.0112697698278485,0.0175153764149914,0.0132201935161624,-0.0032136578475569,5.299053909472492e-05,-0.0073979046270216,-0.0118407293521656,-0.0125129807603646,-0.0057566598184587,0.0050321368279943,0.0074329024517621,0.003057578002636,0.0149740372759356,0.0160956649131114,0.0021947133420388,-0.0118693061008168,-0.016905627812684,-0.0258059484232129,-0.0112109865722753,0.0114370200371964,0.0204855747754324,0.0240595732732341,0.0166946006632079,-0.0027550854831899,-0.018001083104707,-0.0214598547093833,-0.0182858510100929,-0.0048525970477611,0.0087864823921692,0.0151218732866827,0.0191037495342479,0.0167790226100001,-0.0047448159626339,-0.0160255392664276,-0.0104792877591804,-0.0131197860894749,-0.0082344288797234,0.0085340585515894,0.0113808814603247,0.0125642284490421,0.0040428302654648,-0.0029507729198251,-0.0103241927738723,-2.3034686504557892e-05,0.0035145862275202,0.0002530003786669,-0.0103169139933904,-0.012012411236811,0.0054511223440467,0.0134982469433894,0.0143446694180562,0.0052486077791306,-0.0087703670491836,-0.0166234894375023,-0.012576162814248,0.0050034211909812,0.0095459639263571,0.0091176185562188,0.0065636557795038,-0.0028115063611212,-0.0098278963891059,-0.0033451735697029,-0.0046485398984417,0.0039852962041498,0.0040092633869223,-0.0043050486207795,0.0034033478918378,0.0126408249320785,-0.0030598067514896,-0.0035086470469771,-0.0023979359167779,-0.0069460746547316,-0.0066852039980766,0.0008215471325846,0.0051051509092517,0.0045064602337955,0.0043486097438563,0.0081406354352355,0.0031365467810366,-0.0045680137583809,-0.0091271217673426,-0.0124071011937911,-0.0094439589300812,0.0040699493356274,0.0144611732793378,0.0143971020458974,0.0039650588444811,-0.0079603349763313,-0.0047799843167397,-0.0041765197905636,-0.0013136637358466,-0.0036937601554876,-0.0050312648363896,0.0003549617329782,0.0035618245885444,0.0121073195090998,0.0148579851485982,0.0024475104153056,-0.0148393714656048,-0.0214848785317658,-0.0156161090945861,0.0082036632694565,0.0208288525085684,0.0177590446508143,0.0026524544981876,-0.0068285443430584,-0.0057164409571018,-0.0096372836801917,-0.0111179165044,-0.0071049404783882,0.0030713649444962,0.0114689896904499,0.0148167266470824,0.0108976610794325,-0.0002726793013364,-0.0046003295727688,-0.0135300688688038,-0.0198353572598849,-0.0029852240277539,0.0040449570240826,0.0131859142200288,0.0119001736957122,0.0037723860458226,0.0022447493104911,-0.0010722627157765,-0.0068272058633967,-0.0102054993025749,-0.0090368486971494,-0.0020160488836832,0.0066124298961804,0.0102330848317207,0.0046057555101524,-0.0018937002034351,0.0011863122954695,0.0009582660705868,-0.0018626676007874,-0.0038032923089514,-0.0015729763370308,-0.0029790481180193,-0.0012715514004617,-0.0030122912982953,0.0010716364639272,0.0045841844451401,0.0036458739649855,0.0036396345038717,0.0071923924306788,0.0026809261807741,-0.0067243592750446,-0.0117809648865716,-0.0055451448070931,-0.0035873627193769,-0.0015920785684401,0.0027751881693873,0.0132239755628997,0.0118427589534416,0.0019607855830653,-0.0040867695542702,-0.0037722324094209,-0.0052218947152014,-0.0074169459094482,-0.0055485239829543,-0.0045110348132926,0.0032607698343199,0.0069400100305547,0.0078836450676517,0.0060241041738784,0.0066219789115793,-4.4605485285087584e-05,-0.0034082859155278,-0.0104206249379571,-0.0131452422707253,-0.0109247457385248,0.0008402238637912,0.0126813577442954,0.0138239446869888,0.0100090445290061,0.0049974950039994,-0.0022178442787626,-0.0088591602594414,-0.0139093462918961,-0.0118394506742543,-0.0036376488160262,0.0066509726746398,0.0146008582579195,0.0088189774850876,0.0013384926791165,-0.0028472281955212,-0.0030789842752687,-0.0023277626651391,-0.0014160336366235,-0.0017753919503386,-0.0059141608128412,0.0002807203451275,-0.0004392068030295,-0.0018914394456701,0.0028113831393712,0.0099079917829604,0.007861947879054,0.0033733154042813,-0.0005363863176927,-0.0090462930577753,-0.0122431976220923,-0.0111769493405499,-0.0036876460081386,0.0051137828154999,0.0113466224252596,0.0141108090237131,0.0122258696164954,0.0053499406336803,-0.0088440245799701,-0.0177335144524779,-0.0153842788967874,-0.00961490771661,0.0015926328072062,0.0098231274399636,0.0141345285901676,0.0130247377296699,0.0022553936385127,0.0091406476038086,-0.0022601907533191,-0.0186254870231997,-0.0217980667721358,-0.0135341827873401,0.0011734606375025,0.0162098899138897,0.0206962462457049,0.0167482536967078,0.0041156648563475,-0.0091099869399975,-0.0141856391946941,-0.0144620765968184,-0.0092560225061178,-0.000873229799715,0.0070143121733197,0.0112811290817164,0.0106520207739728,0.0059712082689585,-0.0004510745313555,-0.0059501628935198,-0.0085514485952499,-0.0075901160084623,-0.0037901492223598,0.0011263484827399,0.0051295405614423,0.0066541269743499,0.0052087863294622,0.0015903344651049,-0.0024343790168966,-0.0049174523735434,-0.0046804586140701,-0.0019566598079107,0.0016712105151584,0.0040943488257497,0.0038673012581734,0.001085320039584,-0.0026086592477692,-0.0049425389921563,-0.0043412521663795,-0.0008845856888253,0.0036638603248328,0.006781789396822,0.0065598776428718,0.0027731213311443,-0.0029230984986754,-0.0077743786708816,-0.0092851215337606,-0.0064769728581496,-0.0004306216052402,0.006167102173769,0.0102748094619362,0.0099463269479389,0.0052596792339185,-0.0017310179714931,-0.0079706761551383,-0.0108005023328208,-0.0091094274238533,-0.0037430633283447,0.0029516401886903,0.0081853050107549,0.0099004123740604,0.0075734855807421,0.002352372699855,-0.0034846271372221,-0.0075092117957492,-0.0081666235101393,-0.0054168651218047,-0.0007005942833479,0.0037736388877247,0.0060853837111112,0.0054732217475511,0.0025889669917339,-0.0009535202280693,-0.003447388336934,-0.0039054337322717,-0.0024259462354089,4.778741390519544e-06,0.0020922937848579,0.0028567417683994,0.0020127810697843,1.2693833325670972e-05,-0.0021767435220377,-0.003452335337444,-0.0030218718006,-0.0008125934137813,0.002345511467183,0.004951645954798,0.0054949768449688,0.0032772769873845,-0.0010455194132543,-0.0055714206389554,-0.0079743687414598,-0.006709153180272,-0.0019756933153151,0.004166440307646,0.0087287237387963,0.0093359233130376,0.0055214919002918,-0.0009728554737345,-0.0070620763908178,-0.0098628908108994,-0.0081025670275413,-0.0026955421508945,0.0037592840099777,0.0082721499482982,0.0088846439786152,0.005523623138258,-8.901557179052205e-05,-0.0053503423642451,-0.0080027214304113,-0.0070761099476692,-0.0031723981212545,0.0019252914095973,0.0060546855402047,0.0075323653935359,0.0057782507990509,0.0015315040008537,-0.0034180338051239,-0.0069370703945066,-0.007462196476482,-0.0047200229976864,0.0001201032728597,0.0049628831258883,0.0077207296768742,0.0072140945316489,0.0036467805353706,-0.001507621808157,-0.0061232431790318,-0.0082828290915918,-0.0070498522389718,-0.002857795794225,0.0026386829239629,0.0072050510169541,0.0089219763665338,0.0069856238047426,0.0020832772588905,-0.0038355736703378,-0.0083315317589677,-0.0094882399057345,-0.0067385890208441,-0.0011414383442672,,,,
0.0014800324480294,0.0129752958649538,0.0193956726690667,0.0179274705087742,0.0091553026347357,-0.0031450408296327,-0.0137495457792089,-0.0183835666281125,-0.0155514572332869,-0.0069548858554911,0.0035433114082478,0.0117518910846072,0.0148660066299212,0.0123607858898185,0.005838720801971,-0.0019134129365777,-0.0081269834015308,-0.0109931965251736,-0.0100586466690011,-0.0060872988672015,-0.0006012341545129,0.0046548167602601,0.0081674709505278,0.0089793278482498,0.0068960831263593,0.002572355922654,-0.0025890621164729,-0.0068067279831565,-0.0085317086550925,-0.0070845482758281,-0.0030014804821913,0.0021237660685437,0.0062677629009351,0.0078068522832338,0.0061863596234241,0.0021429324514129,-0.0026088733607437,-0.0060878314874792,-0.0068601417283012,-0.0046314411687967,-0.0003846040046728,0.0039997752563969,0.0065152788557368,0.0059128713403059,0.0023351713951492,-0.0026177355043408,-0.0065197863413136,-0.0072582651398501,-0.0041701130588113,0.0014497745261187,0.006845141485693,0.0091407783516135,0.0068609988993697,0.0008045846283103,-0.006226683101765,-0.0107503987675582,-0.0103314288072718,-0.004849174817482,0.0033465654378063,0.0104941445801815,0.0131875537672499,0.0099927280635767,0.0021389490075417,-0.007018641805957,-0.013483504695464,-0.0143622981987669,-0.0091136995845818,0.000208636989082,0.0097974697528465,0.0156535234999299,0.0152238639538993,0.0084642710406924,-0.00208447610046,-0.0122388659275184,-0.0177936118531827,-0.0162269288770894,-0.0078330647739276,0.004215689407381,0.0150127964183727,0.0199147831293518,0.0165954219898557,0.0062065753981381,-0.0069858979293547,-0.0174144550088079,-0.0206604476060024,-0.0153930798764002,-0.0038968326499308,0.0090096946353537,0.018089866257903,0.0198386956072816,0.013768076010318,0.0024236215416521,-0.0097164426350685,-0.0179562509087093,-0.0191028981603319,-0.0126453874970064,-0.0010108708413098,0.0112124282249952,0.0188555667909351,0.0180303988385667,0.0076500086023824,-0.0073753692076459,-0.0071166173421135,-0.0092957723139441,-0.0112952809745155,-0.0094500845710003,-0.0039335855093247,0.0046829762284008,0.0103611153397929,0.0155876766385853,0.0140782587951158,0.0051020922135947,-0.0070812008883729,-0.0173816641436306,-0.0192556931114914,-0.0112634016913646,0.000213998772999,0.0114287536884239,0.0177650143918545,0.0179613329026244,0.0109071116395622,-6.181727775273317e-05,-0.0173027206932707,-0.030320303943105,-0.0170567676138748,0.0002680630705404,0.0123329574628643,0.025405239182736,0.0228447394368727,0.0094753874523966,-0.0066233022492557,-0.0234560852492172,-0.0275775832278761,-0.0141844416177467,0.0095898261947097,0.0158840779142507,0.0161864999028155,0.0107743146229395,0.0043597445920021,-0.0015888193353051,-0.0116133310143208,-0.0143073958986767,-0.0057538612649455,-0.0022073307084878,-0.0042812745574683,0.0036005442002156,0.013098958288163,0.0140818481989158,0.009006891275929,0.0006659349361262,-0.0089854994381268,-0.0153378429837009,-0.0110414036726314,-0.010384839631185,0.0002617278220178,0.0144162646373187,0.0125600422586941,0.0126244440487326,0.0071871529463121,0.0010236456790173,-0.0169261135851975,-0.0236858494156402,-0.0083477297286229,0.0050446564213044,0.0138000851233805,0.0148691810500085,0.0013050051775371,-0.0017067313815399,-0.003674394137701,-0.0023112227107217,-0.0021267092246489,-0.0050951463153568,0.0025191163824331,0.0020327069628245,-0.00645829044817,-0.0066484418040828,0.0039845579240916,0.0121563693044184,0.0118382021533135,0.0068149638890989,-0.0047829746480682,-0.0158594843086093,-0.0187532167527138,-0.0174921173919228,0.0099893377044686,0.0279980870063585,0.0171284630944142,0.0042500669114518,0.0009068136109105,-0.0145389322893766,-0.0189568252975426,-0.0146626644432759,-0.0052057178777333,0.0128303428906614,0.0180835699546904,0.012870494640418,0.0006415332674823,-0.0037013368655166,-0.0083441030609685,-0.0013776500834903,-0.0040060073746403,-0.0073872497644725,-0.0069045515898314,-0.0006083852378476,0.0084047900300515,0.0134711680489912,0.0083523944451242,0.0043853126169779,-0.0043716317000971,-0.0114167366970394,-0.0109430582394227,-0.0089807099118913,0.0004508710657624,0.0071777434142431,0.0122891358893353,0.0078692533198892,0.0020977696602856,-0.0001591248006061,-0.0091671684253131,-0.0070888772412704,-0.0030697074739148,-0.0023313931782164,0.0030906663642378,0.0019939270516419,0.0023120912526428,0.0045727363900257,0.0033621932690718,0.0017197630450164,-0.0016056119977702,-0.0032559522125765,-0.0034990786802082,-0.0043131600976891,-0.0032374894331874,9.102909670478464e-05,-2.599988415867012e-05,0.0025203755918947,0.0105913297678311,0.0081918033381055,0.0006485435083077,-0.0059431138043776,-0.0071504577485655,-0.0094197409198685,-0.0056386611750421,0.001544669394761,0.007704305619928,0.0096801360056401,0.0029519913021009,-0.0015380245572766,-0.0024238793117182,-0.0011365302180834,0.0004493934459888,-0.0047421867168703,-0.0040010679143223,0.0012652115554639,0.0024348133849724,0.0018270374409279,-0.0022755602853858,0.0017186040087665,0.0039242057633276,-0.0014659778756741,-0.0035780522314589,0.0031829636588124,0.0029446240776447,0.0007872995260936,-0.0029873173073093,-0.0029635087894321,-0.0047239238760846,-0.003863794237655,0.0003137196214825,0.0051502423551953,0.0073946243273584,0.0071485375591176,0.0020662580113351,-0.0037479946885275,-0.0076833368145348,-0.0086436999026066,-0.0041961445324524,0.000808975428945,0.0025888699880873,0.0113295814722937,0.0068969617331916,0.0007411672854507,-0.0045843580633446,-0.010254885732432,-0.0037543308554176,0.0043315258942825,0.0050706274142565,0.0040156771449072,-0.0027162506716984,-0.0055286223559816,-0.0051378827675927,0.0022017325655902,0.0038391355733291,0.0024455432672697,0.0067774449055591,0.0054399841310434,-0.0054870127138066,-0.0101156207372431,-0.0077061315890746,-0.0042100329769016,0.0054441378328254,0.0105121783032548,0.0088708605749347,0.0041253507749638,-0.0036379048125702,-0.0123491535924583,-0.0076773337031822,-0.00187896707352,0.001843554913495,0.0052683236617675,0.0089427227085173,0.005481217392942,0.0020365103961494,-0.0040949740976172,-0.0096527424689183,-0.0093922889287515,-0.0023277466865099,0.0032739353259674,0.0072234443777251,0.0065853345041024,0.0066511700716263,0.0025653478685984,-0.0035538666923935,-0.008506007249137,-0.0095626720122863,-0.0058903753771071,0.000900413326764,0.0074786865968179,0.0104801037238282,0.0082381207600691,0.0016013576737846,-0.0065401551822988,-0.0101533667605213,-0.0067512995972029,-0.0007270120071668,0.0013138653404627,0.0034234206099674,0.0074235887265309,0.0069456187910146,0.0026519496417524,-0.0031401931085895,-0.007580880860587,-0.0085563620556427,-0.0055800376843831,5.3306690949960456e-05,0.0058757948368142,0.0093218090795776,0.0088124406147306,0.0044224595673284,-0.0021218612430515,-0.0081170266156823,-0.0109776100714468,-0.0093243082600377,-0.0036169291577762,0.0039511449514209,0.010289001825165,0.0126625117107926,0.0098626133436719,0.0027931006435145,-0.0057972561434208,-0.0123725771284492,-0.014064999601279,-0.0099416971828489,-0.001520506795098,0.0077634524062966,0.0139877974118484,0.0144655817949924,0.0089575621001203,-0.0002152811217418,-0.0092079458125064,-0.0143261903673598,-0.0135650874128313,-0.0073682581817855,0.001642321873155,0.0097854038512422,0.0138064797188721,0.0121520495340172,0.0055664015785265,-0.0031946504591846,-0.0104397031962758,-0.0130536417085452,-0.0098900027688846,-0.0024092327755663,0.0058734774788441,0.0110267936997026,0.010675718545463,0.0052416118634241,-0.0022959525184398,-0.0080293514417571,-0.0092238126276913,-0.0056857717984648,0.0003351975582509,0.0055458308178466,0.0074161978722493,0.0053752648489243,0.0008496190577798,-0.0036989894803075,-0.0060934397877414,-0.0054205385175534,-0.002275450400555,0.0017044111077407,0.00468547970409,0.0054469249117156,0.0038363362532655,0.00073868524262,-0.0023928643200901,-0.0042355517355727,-0.0042009864308036,-0.0026310816345513,-0.000479804542338,0.0013027264343688,0.0022655762061352,0.0025179633066241,0.0023879147289759,0.0020192356188668,0.0012631505106285,-6.398384770989157e-05,-0.0018170208448944,-0.0034019790259971,-0.0040364037108125,-0.0032159239449552,-0.0010617345206424,0.0016763841546392,0.0039497283835666,0.0048735835075392,0.0040898586515576,0.0018860284793245,-0.00094782286077,-0.0034388227714813,-0.0047819509821813,-0.0045809261328198,-0.0029191712470452,-0.0002982490394035,0.0024903938045219,0.0045445186738825,0.0051046072311143,0.0038552550064333,0.0011438319706754,-0.0020518080456509,-0.0044722783692141,-0.0051207065796888,-0.0037395227376988,-0.0009598377413256,0.0019830781303638,0.0038424932045386,0.0039531918528538,0.0025062808386444,0.0003694798003216,-0.0014211121694573,-0.002195319862449,-0.0019170668539554,-0.0010711914447178,-0.0002836988768601,6.63720694853724e-05,1.4435888907965578e-05,-0.00010264164437,7.717805651483766e-05,0.0006865462772925,0.0015275457452729,0.002149808741835,0.0020521399972156,0.0009299163174082,-0.0011006700448197,-0.0033894180099979,-0.0048740385032584,-0.0045117554479218,-0.001899316712266,0.0022664807180941,0.0062678383032246,0.0080921395042959,0.0064838869375751,0.0017280377393568,-0.0043244752896859,-0.0090508556002318,-0.0102691394434851,-0.0072574454246081,-0.0010996739892774,0.0057692019186255,0.0105811546065818,0.0113669994535729,0.0077437531196679,0.001058856615007,-0.0061483953031132,-0.0111394370740467,-0.0120222151031292,-0.0084482415815956,-0.0017169973359378,0.0057227487430029,0.0111699219204295,0.0126340521341387,0.0095301807767026,0.0028870387094564,-0.0049814290015694,-0.0112398842719332,-0.0135164324692292,-0.010804644982557,-0.003939115700725,0.0046080782285126,0.0116058169811405,0.0142983966768498,0.011499002026011,0.0041105290770988,-0.0026453198713559,-0.0127366590219789,-0.015677081604619,-0.0126851658882975,-0.0047452745896541,0.0051627403625535,0.013159756464812,0.0160064753541788,0.0124568914751946,0.0038444478063269,-0.0063860475874671,-0.0140528837065263,-0.0159694887067783,-0.0113053496921647,-0.0019832274646154,,,
0.00046408170402,0.0098263143957618,0.0146808715419274,0.0128519632207855,0.0053040894798359,-0.0044081180580749,-0.0118879224195521,-0.0139144222593756,-0.0097947806679832,-0.0015296478709054,0.0071740584245316,0.0125521804260837,0.0123825828720795,0.0068815861041739,-0.0014545547229305,-0.0089786456088737,-0.0124949412790813,-0.0106248631115413,-0.0043328886754134,0.0035905681333531,0.0098006201801896,0.0118152967754203,0.0089715014290673,0.0025825540365646,-0.0046821748950947,-0.0098985282010385,-0.0110407438933356,-0.0077592170513194,-0.0014835447648382,0.0051966940328558,0.0096155886797039,0.0101114535126146,0.0066481480172511,0.0007472183530283,-0.0051905981137783,-0.0088622775187748,-0.0089487947503457,-0.005587684208006,-0.0002644198530342,0.0048354279720003,0.0077474495154626,0.007514603509909,0.0044856382294923,3.4073135903802606e-05,-0.0040928060593971,-0.006450034770627,-0.0063351273909906,-0.0039145133838707,-9.580750223367732e-05,0.0037581678027786,0.0062133613148857,0.0062198467540037,0.0035662654243592,-0.0008562425046295,-0.0052234358136684,-0.0074730699292397,-0.0062976169486414,-0.001932730475975,0.0037577471767727,0.0080622947542082,0.0087360623067684,0.005176851488276,-0.0011709604685717,-0.0074211593854022,-0.0105788553816547,-0.0089666071389469,-0.0030725806083503,0.0045832568485512,0.0105365866541989,0.0119640469998951,0.0080484966150183,0.0004453776960683,-0.0074407771335156,-0.0120625205963623,-0.0114212840893234,-0.0059762682564653,0.0016822639950235,0.0081797566674303,0.0109718285974453,0.0093732227404494,0.0045439102346261,-0.0013737930456556,-0.0063081236744001,-0.0088967753966794,-0.0085903884669479,-0.0055342859656113,-0.0005376657809496,0.0049111910267478,0.0088804570983589,0.0096481567177661,0.006556745007358,0.0005710528674662,-0.0058983734393822,-0.0099725892083329,-0.0096816709933832,-0.0050408186863195,0.0018149556049139,0.0076185867366329,0.0096186437559708,0.0069961129073351,0.0012572299125427,-0.004608131499857,-0.0077163520005609,-0.0067516832770638,-0.0025376623158821,0.0025273424562982,0.005804442847967,0.0057739313958433,0.0027158912678451,-0.0015803534707762,-0.0048364017123491,-0.0054457703816569,-0.0031940540540146,0.0007444883816866,0.0044372853874376,0.006097109811679,0.0048585826078463,0.0011473885610386,-0.0034628974597698,-0.0068614852138937,-0.0073006131337589,-0.0042623447085221,0.0011246922423676,0.0064361911096056,0.0090414336888844,0.0074574404895316,0.0022381319902312,-0.0041756461965524,-0.0086650458907225,-0.0090696192385032,-0.0053112581919938,0.0006422834195059,0.0059038887306068,0.0081726902650365,0.0067697710763536,0.0027378823563402,-0.0018894841861689,-0.0051509245927241,-0.0059935765897418,-0.0045385629887358,-0.0017632797493621,0.0011224371637486,0.0032202503270014,0.0041477740404417,0.0039144741074318,0.0026926241807913,0.0007097287157183,-0.0016856270388896,-0.0039142307234292,-0.0051936100295206,-0.004789941077195,-0.0024183870854537,0.0014217090925755,0.0054158591991838,0.0078295165726642,0.007242275927139,0.0033299457300063,-0.0027060479002705,-0.0083973230315284,-0.0110065358940044,-0.0088909496187708,-0.0025302322966509,0.0054439340969674,0.0113952796033965,0.0124912523711532,0.0081891509325765,0.0005303769888791,-0.006952942596693,-0.0111014586800954,-0.0107226809727181,-0.0070888588101816,-0.0031498235447238,0.0029684006777089,0.0120778103190513,0.0149043912177252,0.0060223806793339,0.0027818101001028,-0.0021535886895506,-0.0073983618664464,-0.0108893047250703,-0.0151206192814914,-0.0113587676748927,0.0020670820702089,0.0161962960059866,0.0199140370436639,0.0136042793530389,-0.0011870095714186,-0.0055772901880243,-0.0112096796395278,-0.010134584816646,-0.0101412475667068,-0.0093593066928604,0.0002589345369549,0.0141299628239062,0.0145108786649559,0.01464264288128,0.0066863219359228,-0.0047234006210987,-0.0142155692333776,-0.0209082792227951,-0.0113258162045511,-0.0021707756164056,0.0131318748143437,0.0185468762126339,0.0114615888785919,-0.0003654790228002,0.0025405621803937,-0.0023450116880795,-0.012118824720042,-0.0218452836730932,-0.0168497070868355,0.0059126498920141,0.0219492822618089,0.0247827306466277,0.0110748150134673,0.0017948954775941,-0.0125630971241087,-0.0241821409624729,-0.0142889225961493,-0.0066246458049474,0.001217870904772,0.0092368824512755,0.0165091733968444,0.021686629656611,0.013501852327576,-0.0043991304220723,-0.0202236645589375,-0.0242254131234364,-0.0104968553449158,-0.0017475785978737,0.0065134844635946,0.0107051437000344,0.0115381045377223,0.0071100446483595,0.0092964545095968,0.0065860078800541,-0.0035017014762475,-0.0164299742293476,-0.0204868258232736,-0.0109785271637719,-0.0029092034549222,0.0041215675003988,0.0159119354442578,0.0229789894881164,0.0139555305001208,0.0021512583527479,-0.0126966548704937,-0.0141457065567537,-0.0150025580344324,-0.0099658353927725,-0.0040238590584513,0.0037637921827936,0.0091541056853471,0.0196520206631114,0.0178205277237522,0.0030290147455462,-0.0090792159293061,-0.0158739298106676,-0.013701841008248,-0.0092009930671427,-0.0004485015266857,0.0054903779340025,0.0111610989409382,0.0115657109019592,0.0038493811761345,-0.0012253530751668,0.0001615749831122,-0.0034278149678689,-0.0082477272057308,-0.0074679212282874,-0.0054719079183844,0.0001206386895173,0.0073154618482499,0.0119369564500661,0.0054854388362195,-0.0032939624835573,-0.0097691387530256,-7.755579570181184e-05,0.004440847750058,0.0002791307554818,-0.005017091173537,-0.001449733690018,-0.0001360292255462,0.0004235803925249,0.0020903866303434,0.0024510231000611,0.0011637362034881,0.0020564683330228,-0.0026021711548147,-0.0037690177299307,-0.0005922466427478,0.0016196487403675,0.0014406401660193,-0.0002235265457251,0.0005225748566873,0.001438101496866,-0.001232001439865,-0.0032756959187899,-0.0009191544571236,-0.0010313840215846,0.0001249322279271,0.0033816641190881,0.0046441494861409,0.0033381435070457,0.0001745139081696,-0.0032546966423808,-0.0053062181577161,-0.0050842791354037,-0.0027914484653224,0.00049995756601,0.0034523659242171,0.0050664027007607,0.0049802522871952,0.0034052509562922,0.0008718329417115,-0.0019786285411782,-0.0044567377376247,-0.0058389051079625,-0.0054989237455261,-0.0032030481499619,0.0005901143968061,0.0046828438920313,0.0074924815098129,0.0077052600912994,0.0049213502694982,-4.295691564041488e-05,-0.0053717648476019,-0.008925026993919,-0.0091168321151642,-0.0056443858147397,0.0002616346087814,0.0062419224317399,0.0097745772929384,0.0093093182062617,0.0050203940234967,-0.0012371693783725,-0.0067814089590629,-0.0093382091495606,-0.0080269194944441,-0.0036329651748264,0.0018845296937356,0.0063149106437273,0.008071262483823,0.0066787445570629,0.002802689256137,-0.0020606829956125,-0.0060785900668497,-0.0076691276042427,-0.006090850034713,-0.001845978421283,0.003358231834951,0.007225797743448,0.0078949218278186,0.0048920591767151,-0.0005194228059806,-0.0058547439440656,-0.0085745791506193,-0.0073190542493402,-0.0025819864721922,0.0035050237915027,0.0081586310924958,0.009217606314194,0.0061151450504177,0.0001314495867502,-0.0061552830722492,-0.0099678801769129,-0.0095237052997869,-0.004839956566223,0.0021928410146467,0.0085463668059702,0.0113497704380969,0.0092176657717558,0.0029896991654744,-0.004552361648547,-0.0099687760412807,-0.0108702620441677,-0.0071283521715567,-0.0008451877311397,0.0049267975848816,0.0078913802261419,0.007544076124662,0.0049779654145064,0.0018051324346107,-0.000916758996054,-0.003030418992951,-0.0048190012982019,-0.0062605827863613,-0.0066719705068261,-0.0050739215149661,-0.00104132977213,0.0070698102646741,0.0095909699270506,0.0114306012763892,0.0085120925417854,0.0013754223065597,-0.007290435427123,-0.0137522043539442,-0.0149432939897855,-0.0099642566219191,-0.0006376816142747,0.0092030964410393,0.0154141625628276,0.0154242540445632,0.0093578672268521,-0.0001397706803634,-0.0091989267051185,-0.0144134791653606,-0.014117175749676,-0.0087921067635335,-0.0006297053079217,0.0074073260128505,0.0126031378984083,0.0132900320255151,0.0092990206561258,0.0020125766095965,-0.0060134614194528,-0.0118474759388612,-0.0132342027157949,-0.0095348738825769,-0.0021131306142427,0.0061014216032684,0.0117717108850771,0.0125685557984053,0.0082117807547797,0.0006312589780633,-0.0068740066674349,-0.0111177470706217,-0.01045348798639,-0.0054632064998081,0.0014087015410032,0.0070645632253678,0.0091880225636414,0.007214488592733,0.0024275598803792,-0.0027820258619661,-0.006089940305112,-0.0062889106048239,-0.0037429423523343,-5.0691845152352914e-05,0.0028835229301453,0.0038512536799361,0.0028597610242058,0.0009207552054135,-0.0006926794973199,-0.0012261149869994,-0.0007940737684369,-0.000135777763677,9.860468478826364e-06,-0.0005370330737607,-0.0012913295182301,-0.0015030030284101,-0.0007427739972222,0.0007649658971044,0.0022736738120429,0.002967633870938,0.0024080393194883,0.000726614859412,-0.0014646422947507,-0.0033272599242808,-0.0040845579372956,-0.0032860400598432,-0.0010219742395428,0.0019878119582971,0.0045543800662719,0.0054754329910776,0.0041305597205354,0.0008918909776481,-0.0029390392728282,-0.005701668212148,-0.006171073416692,-0.0041417804338267,-0.00049291510321,0.0032625013020364,0.0056705133530171,0.0059210946136962,0.0040846419320019,0.0009575888779226,-0.0023403986625518,-0.0047853442787915,-0.0057062520828402,-0.0048610110870819,-0.0024366430302467,0.000942382435455,0.0042511364260987,0.0062879215289581,0.0061290903452737,0.0036278670670332,-0.0003740429056167,-0.0043318213920643,-0.0066714269955114,-0.0064879964522936,-0.0039055431145242,4.07843845469799e-05,0.0038761722213915,0.0062527382458537,0.0063860173269075,0.0042613657701423,0.0006145336944676,-0.0032824138172275,-0.0060078507448705,-0.006491298326923,-0.0044728567183078,-0.0006986720579912,0.0033099378566734,0.0058842482950347,0.0059744407417636,0.0036634046510853,0.000114948915982,-0.0030528167118523,-0.0046112428128368,-0.0042689530619594,-0.0026174235450493,-0.0005925058036378,0.0011169527591173,0.0023079961063431,0.0030621127779313,,,,
0.0049679072498121,0.0060915769790772,0.0048220347466281,0.0013438388261763,-0.0031480489880662,-0.0068322382949124,-0.0079998880012197,-0.0058703871278731,-0.0010871024046188,0.0044332093521129,0.008315573676027,0.0088295078363712,0.0057042140004231,0.0002421791020147,-0.0052856282982645,-0.0086292911886917,-0.0084826480247674,-0.0049816554577438,0.0003891356539134,0.0054330786698069,0.0081593899148826,0.0075892835478638,0.0041046695161612,-0.0007825857227409,-0.0050977347928649,-0.0072027744319226,-0.0064143625372124,-0.0032218820524943,0.0009645608346283,0.0044346160496527,0.0059046041205392,0.0050192831428926,0.0023976427506195,-0.0007608619177667,-0.0032556677459708,-0.0043372090687733,-0.0038628261607348,-0.0021946656840521,1.4616013916220612e-05,0.0020358648199888,0.0032505554102336,0.0033172115765227,0.0022849200425001,0.0005820700546283,-0.0011576260086762,-0.0023649121565952,-0.0027497907235246,-0.0023417375565085,-0.001366934891455,-8.821806461608257e-05,0.0012645743918294,0.0024466271823719,0.0031241638093061,0.0029113078739226,0.0015775328700198,-0.0006778524812095,-0.0031113476914838,-0.0046595067621383,-0.0044540204488721,-0.0023403375076584,0.0009385728531124,0.00403990840548,0.0056493849328644,0.0050930304363017,0.0026114032178266,-0.0008098825788226,-0.0039094141452712,-0.0056490753852051,-0.0055246049848446,-0.0036272848649603,-0.0005347803558112,0.0028611090072787,0.0055479062171829,0.0066267729618635,0.0055856425128219,0.0025330664795908,-0.0017250282476216,-0.0058420125172393,-0.0083095315931651,-0.0079730845831464,-0.0045485988105389,0.0010532097419839,0.0068316091980687,0.0103716833078862,0.0099233557785486,0.0053601161445668,-0.0015789783840513,-0.0080023889648959,-0.0112029876074691,-0.0099087870833794,-0.0048007795349594,0.001911292204652,0.0075523195335438,0.0101042475831948,0.0088877577315842,0.0046229005519244,-0.0009989380846213,-0.005970164552397,-0.0086281558730536,-0.0081723547947119,-0.004906870024742,-0.0001067613556976,0.0044736901479559,0.0072615866368519,0.0074161924121903,0.005056553819575,0.0011216257855887,-0.0030204731916111,-0.0060277030611369,-0.0069553467960192,-0.0054897342538851,-0.0020528934137435,0.0022392053531767,0.0058388403958845,0.0072841018214344,0.0058346070206455,0.0019160853425905,-0.0029270779296171,-0.0066404155898372,-0.0075795462303554,-0.0052922522413576,-0.0007607910377337,0.0040288802306067,0.0094695104779226,0.0067341920834284,0.0033530179239354,-0.0017380887578247,-0.006282578492897,-0.008218208913492,-0.006611159322259,-0.0020648356116013,0.0035364939111533,0.0078050235005964,0.0088399306025526,0.0060600665084109,0.000525981233764,-0.0054443017704077,-0.0092560156618619,-0.0091931551551411,-0.0052073163346491,0.0010412682169858,0.0069162398081218,0.0099741510817159,0.009034652709456,0.0046551559356528,-0.0012386723692923,-0.0064413850686318,-0.009772278905733,-0.0118692454327713,-0.0148144851888624,0.0039005494509949,0.0217069761860102,0.0183419247545561,0.0063167076931816,-0.0016449833829534,-0.0081495020804875,-0.0123887690835923,-0.0115263749259678,-0.0097944596268574,-0.0048583132019772,0.0071610111904364,0.0208112865952346,0.0193680851572992,0.0095275075901511,-0.0068204467692438,-0.017579602374822,-0.015685543442145,-0.01128206587244,-0.008799964515839,0.0072069109343169,0.0131660485317801,0.0227914229932394,0.0201781268925611,-0.0001690158451742,-0.0213386628243033,-0.0306381927363216,-0.0091577146265783,0.008071813551016,0.0095425873981382,0.0082619940257282,0.0151511532086424,0.0030432688902063,-0.0056164646073334,-0.0096195213188595,-0.0056153685796164,-0.0071339371214951,0.0030263029645466,0.0074553376576718,0.0030753354309882,-0.0017991374934018,-0.0007105736936612,0.003627312986326,0.0040995111544203,-0.0086533107276108,-0.0068617908313069,0.0042023282513996,0.0023999496810536,0.0044039239194184,0.0026741647971749,-0.0068554130266265,-0.000694797908789,0.0059292506482276,0.0024737972182495,-0.0106238961455612,-0.014329616701503,0.0057247457839932,0.014805433358359,0.0120669455705763,0.0042799003351641,-0.0070468747740583,-0.0077122739159638,-0.0174448752224519,-0.0060719860712649,0.005252043189972,0.0084840497450155,0.0099750842149435,0.0056738342177197,0.0031548961841398,0.0003484756057055,-0.0017671486125252,-0.0101460323213623,-0.0149316717906974,-0.0028488795621729,0.0043075342689355,0.0034680546082201,0.001621988501918,0.014835068583233,0.0151986661049675,0.0006824853479235,-0.0179412780385987,-0.0134643226237388,-0.0056509840470169,-0.0011850519485453,0.0013802847046589,0.0068979401338764,0.0152277928264156,0.0109267628155487,-0.0037868058051362,-0.0188769841008339,-0.0147001767437737,0.0022787317157152,0.0126067270054678,0.0138395594788702,0.0061841639071397,-0.0060814272715539,-0.0111398582767665,-0.0125007201815579,-0.0054489637344534,0.0011970702677219,0.0129364883141121,0.0138878213583984,0.00536736487045,-7.271026189881909e-05,-0.0076861470361404,-0.0084073111875684,-0.0056478349051708,-0.0026041415025006,-0.0019878982220982,-0.0035213803226405,0.0084037951470619,0.0108306841205796,0.0092898062560712,0.0008636686046445,-0.0060997261991107,-0.0076704872864614,-0.0105257600891871,-0.0004534986103639,0.0036487148690124,0.0035895573009131,0.0015698778783143,1.541028152756904e-05,4.673104707868492e-05,0.005937223510103,0.0056609544778339,-0.0038017556277585,-0.0112890879512449,-0.0011448350974447,0.0017604109099383,0.0012643688940039,0.0013387499566564,4.9308440942068065e-05,0.0005266011818838,0.0004955349544397,0.0031914927898772,-7.769894685291877e-06,-8.353385186249127e-06,-2.601927839528929e-06,-0.002483430484468,-0.0055772935898135,-0.002804904488072,7.084533248706299e-05,0.0046658827037801,0.0069888493301912,0.0060512024815394,0.0027580147132554,-0.0046607609616749,-0.0091989675922756,-0.0114061875406408,-0.007311984311524,0.0053083844123782,0.013472361663885,0.0132685267414434,0.0059428194419186,-0.0008573194942598,-0.0084705616752568,-0.0122964197934471,-0.0104799880841309,-0.0051460223755483,0.0022667757854414,0.0089936575737551,0.012207811365892,0.010441643833255,0.0043968987860952,-0.0033315678292219,-0.0094872482113275,-0.0116573582828022,-0.0092525951696594,-0.0035379908038046,0.0031366750193721,0.0083827482312606,0.0105720512619948,0.0091425380964505,0.0044756532261681,-0.0024209458421996,-0.0101968743313384,-0.0172652698364089,-0.002270146151093,0.0043131024703911,0.0053003493299969,0.0065428423351847,0.0033369017437859,-0.0015781929894899,0.000529301019314,0.0001791883960635,-0.0013937417915492,-0.0028105193616761,-0.0031144653893536,-0.002019528215196,8.069888105034343e-05,0.0022944874782125,0.003594081413008,0.00328760386431,0.0014060033194328,-0.001228950013369,-0.0033564547099912,-0.003908183090932,-0.0025864368723803,-4.613278169552889e-05,0.0024531397154916,0.0037350957611422,0.00331904401728,0.0015903180706398,-0.0005336608877456,-0.0021715456583172,-0.0028920556710738,-0.0027485828877887,-0.0020107529959272,-0.0008776103856329,0.0005781958097218,0.0022222220757801,0.003645984020906,0.0041848358315471,0.0032361364726874,0.0007031688643561,-0.0027312240582406,-0.0057251062135203,-0.006807857081268,-0.005107372045211,-0.0009185524955516,0.0042225943431744,0.0080917656847913,0.008771736683483,0.0056344991099879,-0.0002052680441565,-0.0062645787643542,-0.0097880353078687,-0.009065702068773,-0.0043133537305698,0.0023578996018031,0.007904995275218,0.0097973327359542,0.007237530022479,0.0015430091433246,-0.0045279370474146,-0.0081780590581511,-0.007956257861502,-0.0018873457283997,0.0004494733814417,0.0041395886073615,0.0052429361812851,0.0038822594026086,0.0013251333191767,-0.0009929701291553,-0.0022786209342614,-0.0025555426870271,-0.0022581288654763,-0.0016966118792258,-0.000847606412112,0.0004234415545594,0.0019816107224501,0.0032651363053809,0.0035189632355647,0.002265713055176,-0.0003061563776984,-0.0032822258904461,-0.0053365979713923,-0.0053015754080338,-0.0027775825325913,0.001491727755555,0.0057419348572206,0.0078901377981112,0.0065682503603375,0.0019598995147805,-0.0040773847526746,-0.0087738878468452,-0.0097663390119746,-0.0063085433227791,0.0002628320613389,0.0070700753454289,0.011000652763293,0.0101585299141351,0.0047694465034286,-0.0028902935887323,-0.0095039034915978,-0.0121848912093023,-0.0097363703581765,-0.0006751470753821,0.0046629665907474,0.0103263841100033,0.0113155633186367,0.0072599632077824,8.663208676679283e-05,-0.0069062133875856,-0.0106204573279957,-0.0095917831793619,-0.0045692872807763,0.0019944380311771,0.0071920800536207,0.0089766731953813,0.0069458218204709,0.0023298886983046,-0.0027091868783236,-0.0060914500881449,-0.006674302391573,-0.0045968780845054,-0.0010364089836426,0.0024215770377922,0.0044681095154258,0.0045319048283109,0.0028875043084399,0.0004296116094381,-0.0017615170646278,-0.0028795126832795,-0.0026889099051401,-0.0015420874314451,-0.0001287973380171,0.0008977322725595,0.0012200927697932,0.0009430232448768,0.0004577805082556,0.0001828245197593,0.0003112376122448,0.0006781983384,0.0008321488234758,0.0003243757647935,-0.0009097442618646,-0.0023403747533,-0.003033815671753,-0.0022180644721957,0.0001132388934223,0.0029960578324452,0.0049067697777257,0.0046040629640602,0.0019129871922669,-0.002042364411993,-0.0053459896224396,-0.0062869771924635,-0.0042901142910354,-0.000248772952462,0.0039256671149129,0.0062795655962601,0.005785466722464,0.0028023553941572,-0.001181264075555,-0.004345857702266,-0.0054316736921672,-0.0042561137150172,-0.0016347497466844,0.0011687834395237,0.0030993663414762,0.0037109305285642,0.0031609820383452,0.0019113596614944,0.0003925797548947,-0.0011471094257303,-0.0025527581167591,-0.0035638732129861,-0.0037295752605666,-0.0025944308366925,-9.94751883219089e-05,0.0030836936568328,0.0056197084962236,0.0060910283971931,0.003830864143442,-0.0005145616392029,-0.005123308171553,-0.0078384981359667,-0.0072568984669008,-0.0034549375032534,0.0020210754099722,0.0068539088776763,0.0089731440219286,0.0074304877350899,0.0027873478635036,-0.0031104030836428,-0.0078693847332551,-0.0095198605676217,-0.0073442613640287,-0.002205540052782,0.003801005860714
0.0053376632572842,0.0040218089444113,0.0032679516476793,-0.0025803343995787,-0.0042777255595355,-0.0036404255199217,-0.0013408991167296,0.001082327898545,0.0021943259357387,0.0015152424008289,-0.0002563427123136,-0.0017465228832972,-0.0018007573383955,-0.0002264818322286,0.0020537542817174,0.0035354110880264,0.003058013282354,0.0005873297722373,-0.0026438838863001,-0.0047920469805101,-0.0045155163264465,-0.0018548847322378,0.0017289790970151,0.004241999520983,0.004405368727173,0.0024151964088331,-0.0003036496430466,-0.0021347844444594,-0.0023233403946058,-0.0013151616912278,-0.0002289522113206,6.463849448926434e-05,-0.0004412506494406,-0.0009910772076086,-0.0007473183511173,0.0004997810552366,0.002124833953976,0.0030827795127901,0.0026098641601874,0.0007195360841438,-0.0017904910799151,-0.003760544915167,-0.0042376936765455,-0.0029026300460398,-0.000205752287582,0.0027932896084465,0.0048165825207656,0.0048859297876512,0.002797045542611,-0.0006858237890084,-0.0040925238251623,-0.0059095761668359,-0.0053077378609206,-4.034534730050967e-05,0.0011745716681311,0.0042328678724809,0.0053960951690805,0.004294918958547,0.0014741465135319,-0.0019160181687742,-0.0045867284535004,-0.0055660254013108,-0.0045077639742226,-0.0017745157263936,0.0017054684328572,0.0047368905598756,0.0062201916980413,0.0055023007528187,0.0026414126424259,-0.0015080957260046,-0.0054786376237872,-0.0076560514474289,-0.0069203592476743,-0.0032247427602855,0.0021821105399297,0.0071053317704775,0.0092962018919585,0.0075386720843182,0.0023762368098462,-0.00398596671715,-0.008665494936852,-0.0095153787782216,-0.0062033617847028,-0.0003490743570742,0.0053421174317452,0.0084301055663123,0.0078310721395332,0.0041401013158445,-0.0008442332711674,-0.0050330657884406,-0.0069223284405349,-0.0060797960590808,-0.0031271499298903,0.0006731630930483,0.0039721056586709,0.0057697762500028,0.0056066455570318,0.003561567884548,0.0001923717997564,-0.0035173806323451,-0.0062898259156722,-0.0068972024521368,-0.0047087825701663,-0.0001897323652453,0.0050121904945147,0.0086057739476645,0.0086841910265412,0.0047645482382747,-0.001745572317661,-0.0080116693447207,-0.0110443196441336,-0.0091814401162356,-0.0030047840041629,0.0048238334247681,0.0107607911717533,0.0120370854903064,0.0079743086938013,0.0003283877506126,-0.0075095355737366,-0.0120753468514876,-0.0114034456784002,-0.005865864356423,0.0020691631866789,0.0089770782342202,0.0119625120977307,0.0098607925246758,0.0036889243274543,-0.0038242070433762,-0.0094422543027478,-0.0108483176229578,-0.0076440504965116,-0.0014508410879367,0.0049127200475732,0.0087466237019021,0.0086413323085068,0.0049896291938475,-0.0003372654066087,-0.0049399174716821,-0.0069889176549426,-0.0059532885392605,-0.0026533636373567,0.0013038246626022,0.0043272040256693,0.0054143775451397,0.0042314661624393,0.0008050308595148,-0.004780271043101,-0.0097817307770561,0.0011317365413995,0.0076501929534213,0.0037569137307856,0.0024263126016493,-0.0016049430314609,-0.0050070270483858,-0.0098153637648134,-0.0099347211414014,0.0068808984452013,0.0156435006385813,0.011352762051636,0.0007046846719774,-0.0037401320605264,-0.0074099385461723,-0.0092520040661606,-0.0108338113916681,-0.0060138877653429,0.0072975821284492,0.0149782816478477,0.012484682975079,0.0049567882467984,-0.0006236912032074,-0.0067666690965396,-0.0093887628437474,-0.0147326519733822,-0.0164783212425744,0.0024531921256763,0.0244219172716153,0.0225882709433974,0.0101954819733974,-0.0062248410081695,-0.0239865010005117,-0.0176067003236184,-0.0008544039042905,0.0117335425691129,0.0099952912235035,-0.0034150831129572,0.001762189548234,-0.0009640767870904,0.0016250115079412,0.0095486550196002,-0.0002053317317732,-0.0137327499767839,-0.0020926682991573,-0.0006329753652964,-0.004889565347833,-0.0021029866364194,0.0078488086212324,0.008608694296926,0.0097682282759221,0.0050415903668565,-0.0092261937442444,-0.0147697954455566,-0.0108150443196372,0.0029516863453536,0.0085252727025098,0.0037655947833804,-0.0019192389199545,0.0013896338145203,0.0135754270276855,0.0021950176837445,-0.0048962772224367,-0.0113687412636919,-0.0083313067778535,-0.0013424286188385,-0.0009741859086045,0.003180589130965,0.0075924548356906,0.0120419474037671,0.0066174034044895,6.455913989123972e-05,-0.0131045072648694,-0.0150221413786067,-0.0077128716387809,0.0070668516955721,0.0095985948876709,0.003790869125298,0.0049443237106562,0.0017207127496036,-0.0029745793292901,-0.0046360483274802,0.0001705949828009,-0.0021106140472974,-0.0031529741725195,-0.0056632342711922,-0.0025180024755732,0.0137574632991436,0.0095198514175841,-0.0022927990661882,-0.0032443683439646,-0.0037621968389689,-0.0046790830274655,-0.0001097472024513,-0.0032174125408194,-0.0017795146077834,0.0012685150992141,0.0086129886789178,0.0069528904623046,-0.0007972101257691,-0.0009167528549561,-0.0032560583595826,-0.0036904647215655,-0.0040984530166035,-0.0038815083376537,-0.0058564920880932,0.0043642650875765,0.0104958937580403,0.0035341213797467,0.0049071974249201,0.0057308729752913,-0.0009755736960659,-0.010679648292471,-0.011154432752071,-0.0082514028650067,-0.00172315322226,0.0036287546289603,0.008794889409228,0.0106826118939512,0.0080850516255544,0.0078119865215313,-0.0004001422588716,-0.0111413534069864,-0.0197663325367094,-0.0148574314191018,0.0011314156223361,0.0095358872114718,0.0107788696437821,0.0118120353026693,0.0086775974412324,0.0019631572673768,-0.005032723357094,-0.012569566322587,-0.0070716207791238,-0.0036151124091667,-0.0054466106358932,-0.0004600178366963,0.0047450081353878,0.0078667459689314,0.0122813382332692,0.0109378844278084,0.0008259976138179,-0.0127848077849939,-0.0201025563093496,-0.0053440654216997,0.0015651479947716,0.0059064237203338,0.007016474464239,0.0100807227309743,0.0048844566458641,-0.0004121135236682,-0.0086259344110682,-0.0087187045529795,-0.0047908533189102,6.147491223970305e-05,0.0043424144486726,0.0064489615452611,0.0055475346420831,0.0020177076876187,-0.002758413106731,-0.0070522434840536,-0.0045714461706443,0.0003795041849869,0.0025027848150076,0.0005642531653556,0.0004502553312583,0.0009466084045478,0.0042142920574465,0.0055860748708567,-0.0013891509033218,-0.0086854412528046,-0.0054092231256163,0.0002491923874899,0.0021078376765635,0.0024416670405636,0.0021776826750752,-0.0011529144821178,0.0027163899665764,0.0032118041870617,0.0010140090919026,-0.0022189955305077,-0.0046310085060597,-0.0049335996527497,-0.0028947948760334,0.000627661209582,0.0040970583128862,0.0059640287619654,0.0053184824209358,0.002279402205004,-0.0020221687668515,-0.0058582194402579,-0.0075602048988951,-0.0037035232053487,-0.0021008514869212,0.0031678241816615,0.0073355759295587,0.0084226805328605,0.0056746783387688,4.344631232862797e-05,-0.0060842897574834,-0.0098895060994068,-0.009435308926635,-0.0046567350772617,0.0024984346616592,0.0088956404293373,0.0116328585711913,0.0093750163613077,0.0029750893274037,-0.004886778533721,-0.0108596904558181,-0.0123596279214977,-0.0086818326070708,-0.0013226854316739,0.0066380930948597,0.0118522156958888,0.0121520743358521,0.0074835810870685,-0.0001076038908988,-0.0074200742278982,-0.0115098953975936,-0.0109113123656471,-0.006140731454616,0.0006699808358099,0.0067699210470933,0.009933637992308,0.0092673881744563,0.0053922670546054,1.141374358813262e-05,-0.0048792633623427,-0.0077560151738022,-0.0079852660753815,-0.0057980097417373,-0.0019911163271276,0.0023668526488456,0.0060922197718219,0.0080164892660879,0.007279696344874,0.0037871015264978,0.0010280440665653,-0.006615952528004,-0.0095957581334543,-0.0090913442878248,-0.0051550774500593,0.000729165043751,0.0062580766747371,0.0093026868153878,0.0087918914070582,0.0050890229104072,-0.0002589946204682,-0.0052232438336589,-0.0080952221026447,-0.0080552806245304,-0.0053350763858488,-0.0010031423199297,0.0034636790653302,0.0066433410368025,0.0075568140901095,0.00593887660982,0.0023461471910897,-0.0019746785429017,-0.0054928095295932,-0.0069658735563515,-0.0059350930894669,-0.0028987753331682,0.000923725559728,0.004115131305008,0.0056170289199083,0.0050816966302805,0.0029112121685411,2.781762084863005e-05,-0.0024981020134392,-0.0038347505956129,-0.0036802397438822,-0.0023495347407453,-0.0005876222703841,0.000828972789289,0.0014884557616304,0.0014987786450725,0.0013107116008561,0.0013309652157302,0.0015779285780556,0.0016140956841761,0.0008383847526798,-0.0009990886773972,-0.0033841690295441,-0.0050745351889883,-0.0047093932237183,-0.0017274479898683,0.0029835892774814,0.0072400350145326,0.0085997983718147,0.0057737920333346,-0.0004223568730333,-0.0072198788731119,-0.0111841080548531,-0.0099999589327133,-0.0037949400715717,0.0047452706922836,0.011586723222006,0.0133057981837673,0.0088164314316264,-1.691545640281078e-05,-0.0092054821025687,-0.0144973543340109,-0.0133620981305287,-0.0061618485475819,0.0040008188932108,0.0126505178012129,0.0159062840817785,0.0122074650330663,0.0030525830210181,-0.0076080770601964,-0.0151039995692873,-0.0161308093807517,-0.0102176474205355,9.98428865864021e-05,0.0104329486622462,0.0164394830810978,0.0156198477013774,0.0082931725814523,-0.002574559045076,-0.0125713002672087,-0.0175893424129283,-0.0154625140186041,-0.0068680158430812,0.004868589266413,0.015021917309006,0.0193198743956104,0.0157031067074551,0.0052950584340485,-0.0078593613699581,-0.0182944338318549,-0.0213706370859885,-0.0153750977929364,-0.0024991193587452,0.0118975359575525,0.0215519373387023,0.0221150803475574,0.013189630983353,-0.0014185126772516,-0.0153916986815436,-0.0227494564369593,-0.0205050136207281,-0.0098841506706656,0.0044052003359639,0.0163929919085478,0.021424001198449,0.017922890787163,0.0077165891059601,-0.0049859219552058,-0.0153443162614329,-0.0196408165107446,-0.0164903852254272,-0.0072243903343752,0.0046147411526325,0.0145359237942217,0.0187570164906287,0.0156777365904051,0.0065537498086448,-0.0049683055982416,-0.0143043810378336,-0.0177812816121669,-0.0141181737198789,-0.0049373769968515,0.0059114167622758,0.0139552219691141,0.0159773198854472,0.0113716932933087,0.0023648995481362,,,,
0.008145703344642,0.0044927913175372,-0.0011557640660483,-0.0064943543117763,-0.0092732694616035,-0.0082446898388048,-0.0037089299582085,0.0025587892492226,0.0079855141492255,0.010240466208379,0.0082361160137683,0.0026595114529232,-0.0042425025251454,-0.0095812891294588,-0.0110588308329114,-0.0079580528643644,-0.0014562731213562,0.0058481485932693,0.0109740878740649,0.0117442774770028,0.0076784987042443,0.0002605171813508,-0.0075564290745375,-0.0124857487788445,-0.0122949859504972,-0.0068670193502626,0.0016064231605317,0.009503051206434,0.013389208800148,0.0116061041727314,0.0050108448356866,-0.0034912609676694,-0.0103233236593736,-0.0127870831147144,-0.0100861103024755,-0.0034935174112376,0.0042660113246558,0.0101135931512584,0.0118001708558729,0.0087744318565056,0.002396358153597,-0.0046405508787909,-0.0094758887016395,-0.0103147023004351,-0.0071334907912788,-0.0015412692411584,0.0040710793759278,0.0076182324072836,0.0081170035373933,0.0058760319616719,0.0020940286332798,-0.0018277298653036,-0.0048445733299234,-0.0064310031194471,-0.0063977957592746,-0.0046759042052145,-0.001363217380724,0.0029678778765466,0.0070380798093597,0.0091022788134709,0.0077497488190654,0.002869540015661,-0.0038839761653694,-0.0095983655154214,-0.0114720977083734,-0.0083315747031504,-0.001392305966702,0.00624208062174,0.0111016076306734,0.0110523347569297,0.0062731698221992,-0.0009413277537843,-0.0073571961404645,-0.0103078215083639,-0.0088073951778419,-0.0038180939125199,0.0023437635997301,0.0070955498538722,0.0086461695283935,0.006606921961271,0.0020047731627646,-0.0032026467322084,-0.006889371591758,-0.0075596334685632,-0.0049399597169668,-0.0001363414841292,0.0047657966618875,0.0075587396454529,0.0068902995369367,0.0029254033916905,-0.0026378348709807,-0.0072571588747574,-0.0086831703802391,-0.006049488564007,0.0020970446871142,0.005627266776699,0.0090085748116616,0.0078669396433188,0.0025765834074211,-0.004303779899771,-0.0092795225304804,-0.0097374842450536,-0.0053606622302244,0.0016691322591282,0.0078187272110632,0.0100588427924983,0.0073989794351812,0.001306069182068,-0.0051385973442248,-0.0088362495221519,-0.0081837309847094,-0.0037649421895933,0.0020736031808997,0.0064878104647754,0.0075537562458947,0.0051127218061881,0.0006670214531285,-0.0035287652440381,-0.0056397976095236,-0.0050657803063063,-0.0025255738815454,0.0005334836960994,0.0027764346327544,0.00356297148974,0.0030161182571036,0.0016991394413995,0.0002187148331781,-0.0010111878477434,-0.0018101565648392,-0.0021592396353651,-0.0020978880490071,-0.0016428343030595,-0.0007756649031017,0.0004746849969353,0.0018996885708605,0.0030505947358249,0.0033610650761737,0.0024410492234766,0.0003771512585135,-0.0021744278942297,-0.0042050917531706,-0.0047908488569839,-0.0035273780841786,-0.0007520011960384,0.0025417055555051,0.0050595179651002,0.0057086476181926,0.0040774679628358,0.0006992582813469,-0.0030713489668001,-0.0056059718832929,-0.0057712918004563,-0.0035226688451781,3.7560327410351875e-05,0.0032103970313897,0.0045788565743419,0.0062164393976481,0.0013079736426674,-0.001323350572236,-0.0029403104454652,-0.0029987279248355,-0.0018462363577717,-0.0004012893478228,0.0004764220973271,0.0005140573743763,0.0001197096778726,-2.629169460147684e-07,0.0005784534074742,0.0016285128824154,0.0023680807635755,0.0019696624407802,0.0001676882209419,-0.0024156391707923,-0.0044662935160296,-0.0046511224739682,-0.0024248275564325,0.0015029620110172,0.0053653722841298,0.0071578980306183,0.0056732877566952,0.0012098199398235,-0.0044256955968602,-0.0086512684593435,-0.0092703899105957,-0.0055582326789381,0.0012256391526965,0.0082014142430159,0.0120593198314954,0.0106191215274721,0.0040342661850342,-0.0050243114709837,-0.0124356988375667,-0.0145441785021068,-0.0100156570193152,-0.0006620672664553,0.0092840789828222,0.0151783763458332,0.0142682709994414,0.0070654369442952,-0.0029767713596251,-0.0112828177890842,-0.0144122005055852,-0.0115208261175197,-0.0043867704507377,0.0037594039067758,0.0097944946670979,0.0118564762593539,0.0097183726649225,0.0044920792850693,-0.0019669702713736,-0.0076284281994543,-0.0107310822470201,-0.0101835697215413,-0.005965172219736,0.0006368506698846,0.0072487430369526,0.0112274665340404,0.0108138630774953,0.006037969999761,-0.0011660977330094,-0.0077683011497452,-0.011002601037163,-0.0096177222196432,-0.004417159901946,0.0021653200328301,0.0072451980025538,0.0088413287506734,0.00672719592325,0.0023581690251841,-0.0020399471767089,-0.0046655946702765,-0.0049364410221357,-0.0035023318897456,-0.0015999135302474,-0.000232831121508,0.0003292132352408,0.0029935475220991,0.0008383212571821,0.001577210047467,0.0023875707849165,0.0026320873899637,0.0017752153792124,-0.0002280775400575,-0.0027779834788706,-0.0048123446633903,-0.0052653757781869,-0.0036109955437355,-0.0002293703029027,0.0036303477405108,0.0063444398805447,0.0066666193249312,0.0043577191928559,0.0003369201585214,-0.0037546649256127,-0.0063411638404648,-0.0065977924751954,-0.0046727525400167,-0.0014142771593767,0.0021187129549868,0.0050249491118843,0.0066660678037972,0.0066181308582744,0.0046654064307339,0.0008986804019974,-0.0042162572202177,-0.0099677370562942,-0.0156788810819455,-0.0110839662069357,0.0064566093061802,0.0148936629233932,0.0163885007252985,0.0130606680935527,0.002579209180145,-0.0094498749465432,-0.018082378520878,-0.0263564005751049,-0.0108900216909427,0.0170928203548028,0.0265596289278379,0.0209579450789828,0.0010570315028666,-0.0183165630643739,-0.0174486507198868,-0.0111211085322395,0.0146691525841884,0.0154705229685242,-0.0067003030647015,-0.0176997263238126,-0.0045179544869077,0.0226696147090127,0.0078395473880197,-0.0093327648044253,0.0008724049244721,-0.0031626069674693,0.0018274353361835,-0.0010464391750321,-0.0031283188809157,-0.0013231568642708,-0.0075051589007401,-0.0013543137538099,0.0086307228106774,0.0076924398877521,0.0061830454593216,7.953888199554696e-05,-0.0090592866326839,-0.0046044303024774,0.0007874291837366,0.0025663331555685,-0.0010360676446772,-0.0067104435151898,-0.004188025971051,0.0008342302081498,0.0141921351844325,0.0045729835238167,0.0075400919870781,-0.0065292244781016,-0.0145030491005555,0.0004063930062803,0.0041730557537188,-9.616257474096964e-05,-0.0050891527249891,-0.0065133006236179,0.0056717961742958,0.0104063500495603,7.231190323280809e-05,0.0034273464187094,0.0016929791051876,-0.0009843191545272,-0.0014898061849906,-0.0072514106875429,-0.0122704294985426,-0.0052418112082796,0.006506569907189,0.0093493472160296,0.0067273434782992,0.0064692708222232,0.0037607197655055,-0.0016991034749683,-0.0053534651029807,-0.0096398933695417,-0.0115120868048262,-0.0060112074718252,0.0021058211415591,0.0094206454382559,0.01647041044443,0.0130579278887203,0.0041169315094229,-0.0139658479930156,-0.0272178473872182,-0.0009813094963298,0.0082395423997887,0.0039509607130597,0.0027071809355338,0.0021674197951187,0.0025413668725503,0.0037466001207537,-0.0001549631672185,-0.0007812624603378,-0.0024445021773354,-0.0061365708503093,-0.0058314541332537,-0.0011627337005392,0.0027288409604289,0.0053784586109375,0.0063114428193146,0.0049087337539896,0.0001797669792138,-0.0089377623872194,-0.0102113539408781,0.0085143795641705,0.0076564796149701,-0.0032787709551808,-0.0074313824162898,-0.0076526854403753,-0.0002483253895104,0.0068702194364753,0.0087877909367589,0.0076910906561491,0.0042114509456702,-0.0031189642793856,-0.009867707937155,-0.0100942817521185,-0.0052265122864226,-0.0037556937724412,0.0036191108576796,0.0089046181723959,0.0100163618820002,0.0064700298936217,-0.0005618224040256,-0.0012134961355532,-0.0025619795179611,-0.0070033720389324,-0.0092702553838348,-0.0080316008529277,-0.0006275707108729,0.0056704395685148,0.0091338056981949,0.0091095253258726,0.0060818736062616,0.0013833903837354,-0.0033279335452435,-0.0066266793905162,-0.0077152524568098,-0.006541299760687,-0.0036561217061229,5.950221284127317e-05,0.0036590788916991,0.0063065926359871,0.0073732819286827,0.0065101292352727,0.0037394014911466,-0.0004451626784832,-0.0050386367986994,-0.0086436287750357,-0.0098209324675936,-0.0076507328744187,-0.002321085763531,0.0045956383476995,0.0105080125090204,0.0128404126294427,0.0102895491320852,0.0035847047178058,-0.004734878244319,-0.011422185709857,-0.0139097934614066,-0.0113107539498374,-0.004652127003143,0.0036331331878705,0.010642495775901,0.0139845184030429,0.0125121215666144,0.0066523565023473,-0.0017132113598211,-0.0097812067445576,-0.0146669806936114,-0.0143752962191263,-0.0086338770006425,0.0007515467266908,0.0103171152479563,0.0161720015821669,0.0156521440389374,0.0086559143114658,-0.0020759629406571,-0.0120209441624012,-0.0168670432756601,-0.0144991968345087,-0.0060027328739271,0.004815568360473,0.0131648743810449,0.0154482621680499,0.0108729528700081,0.0017612049011132,-0.007571297540802,-0.0128516600925228,-0.0118562975823334,-0.0054313634787951,0.0029913612269901,0.0091718339353853,0.0102356733849025,0.0060949619889445,-0.0006499216567509,-0.0062472074987125,-0.007875684707368,-0.0050928605612615,0.0001207902705988,0.0046533181721442,0.0060688638690442,0.0038845089315216,-0.0003426109367451,-0.0040557733398051,-0.005191228770335,-0.0032695090658446,0.000463568698139,0.0038340844292147,0.0049759132782539,0.003326093634759,-0.0001277922090278,-0.0034461047167417,-0.0048335148178204,-0.0036212241475279,-0.0005874820033201,0.0025507991916363,0.0041506611991236,0.0035406842514289,0.0012888910642358,-0.001250924088522,-0.0027698483033535,-0.0026947038243821,-0.0013773565403403,0.0002446895702236,0.0012525344744891,0.0012512364329816,0.0005131381107837,-0.0002833699756673,-0.0005302888845072,-7.191343802698804e-05,0.0007382408141858,0.0013031851359359,0.0011625478623751,0.0002502418871214,-0.0010799037571553,-0.002227424191399,-0.0026164719565429,-0.0019540234355437,-0.0003742344376639,0.0015940232999523,0.0032240072746896,0.0038631305116825,0.0031670997059803,0.0012242592904606,-0.0014421985440841,-0.0039834904820512,-0.00544511849873,-0.0050839633130363,-0.0027075823287782,0.0011078691656717,0.0050733455784659,,,
-0.0110970831915911,-0.0020559039066677,0.0080382366268703,0.0148436467717005,0.0154051309527176,0.0094644622280825,-0.000440991098058,-0.0100984402573418,-0.0154383301028767,-0.0142624750611408,-0.0071562409268414,0.0027918972131396,0.0113421950480635,0.0149448538125257,0.0122566344808631,0.0046492268922155,-0.0045019734564894,-0.0113715679771528,-0.0133224839484278,-0.0098974037593425,-0.0028084074989344,0.00494389912548,0.0103460934770125,0.0114961645173683,0.0082004980059608,0.0019255533160187,-0.0048115813037299,-0.0094022357372245,-0.0101404813430613,-0.0068803877104402,-0.0010680468362496,0.0048840105902777,0.0086084017986121,0.0087373448802351,0.0054039319552692,0.0001111491178409,-0.0049396056985198,-0.0077575335881314,-0.0073330193601618,-0.003980128440813,0.0008454150887343,0.0051481253803697,0.0071791253702161,0.0061274868377521,0.0024636011333605,-0.0022220906777075,-0.0058672776569094,-0.0068365792268074,-0.0046766532399521,-0.0003562796665521,0.0041496395241293,0.0067520055272409,0.0062037658848803,0.0026848062478517,-0.0022444533320239,-0.006306260645694,-0.0075167899937445,-0.0051259803525024,-6.321290549452665e-05,0.0053710643353937,0.0085176470935971,0.0076619309480811,0.0029830762463484,-0.0034054775427865,-0.0084317730862459,-0.009592329756328,-0.0062304872722882,0.0001125576114057,0.0064559785649221,0.0098471468991175,0.0087814426743279,0.0038627765533958,-0.0025847037082572,-0.0076880073178878,-0.0093471988397675,-0.0070804631545369,-0.0020761069636801,0.0034667714226018,0.0073353646246679,0.0081719545002344,0.0058743329148864,0.0014651229303361,-0.0033805826426459,-0.0069014721591785,-0.0077749843849716,-0.0055585198774656,-0.0009575140659331,0.004260557815306,0.0078415670130722,0.0080074625644621,0.004406567130892,-0.0014894833342866,-0.0069043700517083,-0.0090739277889529,-0.0067225437846193,-0.00086242526671,0.0056078770643483,0.009362457906527,0.0083999654726508,0.0031272773875652,-0.003828906558205,-0.0089788715351993,-0.0097531024528821,-0.0057696455113291,0.0010341997787914,0.0074056297542865,0.0103574802796878,0.0085449147483169,0.0028231567494234,-0.0042062601817599,-0.0093961102305168,-0.010441512003314,-0.0068655049884525,-0.0002162763901268,0.0065887563652611,0.0105130459054427,0.009745322372868,0.0045631263754315,-0.0027079621680215,-0.0086999621140178,-0.0105787605021037,-0.0074549956649389,-0.0008843121964688,0.0058751454946643,0.0095148564564901,0.0083701244665544,0.0032357257825194,-0.0031294095849444,-0.0075024415888795,-0.0078579894180833,-0.0043147790528159,0.0010619926951513,0.0054081214464776,0.0065164995689475,0.0038933554750429,0.0038300397513859,-0.0033963539508547,-0.0083026088237041,-0.007195221220696,-0.0030172697121951,0.0025010182507025,0.0070441664252401,0.0085973451803139,0.0061312091366796,-0.0001745439017459,-0.0066542828931111,-0.0069590511194096,-0.011534430270335,-0.0119094305571355,0.0097035676078217,0.014874438857086,0.012852413865564,0.0114108667596879,0.0024923176113427,-0.0146726787926818,-0.0330087973588771,-0.0174634413874033,0.0120622196835602,0.0262487827952504,0.0186564673215825,0.0042397599282601,-0.0065417490537807,-0.0153255700757445,-0.0078000330028183,-0.0055171490220914,0.0056347732203229,0.004441796665068,-0.0018575099377069,0.0027355873943417,0.0020483074045731,0.0052233847545853,0.0012727774165086,-0.0029445451855835,-0.0083616422432525,0.0034687960501966,0.0002689511441627,0.0010599267665229,-0.0080073065740731,-0.0070768014207164,0.0111042187308996,0.0205784656546066,0.0022096345248963,-0.0161022238497675,-0.0208209315198935,0.0005707701850171,0.008006682357789,0.015971702891685,0.0117090336766064,-0.0118759741740894,-0.0097108883418055,0.0019660002369979,-0.0010155645419485,-0.0071471536185796,-0.0063310390973329,0.0067698689329534,0.0135754764772107,0.0094118832638447,0.0037638974513988,-0.009136098788689,-0.0053741699388186,-0.0125136345831634,-0.0135831134125603,0.0024342659224772,0.0092564378023057,0.0148214628942325,0.0107978479665671,-8.669157189360006e-05,0.0032761951304914,-0.0037985540242495,-0.0101015368987438,-0.0116692262749813,-0.0231046736993732,-0.0054094670395564,0.012335637398641,0.0235621626443339,0.0294080919232385,0.0137830228228293,-0.0027933767245672,-0.0230263456208434,-0.041044515261574,-0.01886102583697,0.0009309649834973,0.0183202760598807,0.0229319207315974,0.0167959812345448,0.0173338323275834,0.0004692917461619,-0.0109981353492942,-0.0206341058607394,-0.0129696054483673,-0.0173260737416613,-0.0208091128419068,0.0147373450903142,0.037377237565072,0.0268008382025748,0.0073749686014187,-0.003975069576082,-0.022075435388579,-0.0236369538864173,-0.013342121914941,-0.0004805003880741,0.0065669181102196,0.0081810853244015,0.0155999592768962,0.0150200934914535,0.0073799694424718,-0.0057160625498492,-0.0174709632286195,-0.0245728743372968,-0.0064625019480419,0.0110778732360973,0.019029068892771,0.0131605973935045,-0.0018023063555399,-0.0136258226542148,-0.0071885370422365,0.0036887038711991,0.0069024471949215,-0.001420552148173,-0.0094852711804451,-0.006443527130984,0.0132206811814801,0.0065071332053996,0.0015747738345684,0.0009864850944519,-0.0044251922579723,-0.0068552781201103,-0.0055301684318763,-0.0051875670204559,-0.0020780294637862,0.0071368351019922,0.017110044252756,0.0097443233091849,0.0039147362433473,-0.0067134435359576,-0.0186653723423573,-0.0229911127727926,-0.0049040743746326,0.0111797089403676,0.0204284705123742,0.0186108035607938,0.004797051194009,-0.0079234739918149,-0.0125844846941886,-0.0157707452409913,-0.0025891454613456,0.0059835972029935,0.0038864832745792,0.0052562995414144,0.0019820942987975,-0.00277954874582,-0.0037607748115297,0.0062145648263567,0.0052873686273116,-0.0002359878180646,-0.0032391704586084,-0.0051103154273894,-0.0052217936308369,-0.0016653678426495,0.0030857553443025,-0.0001843073681707,0.0008150849733852,0.0034841642860321,0.0047427698642043,0.0041027071239693,0.0015658049839548,-0.0021300352412017,-0.0056058111446989,-0.0073138385820627,-0.0062225830045544,-0.0023977481624425,0.002850747766127,0.0074119070041277,0.0092610154133708,0.007392133871572,0.0023526611522835,-0.003887965926731,-0.0087205018955991,-0.0100317376415634,-0.007197283749237,-0.00142854356193,0.0047587819564781,0.0087290924567059,0.0089600269073917,0.0056779373238821,0.0005889095551935,-0.0040830430161489,-0.0066663760774867,-0.0066442215397133,-0.0045703228430953,-0.0015168860615477,0.0015113740964675,0.0038657877885902,0.0052026306517737,0.005298030420254,0.003984169995299,0.001307743553907,-0.0022182717251303,-0.0055307813933213,-0.0072917012260845,-0.0064755251212839,-0.0029762286869886,0.0021366026935812,0.0069207142306977,0.0093312930336023,0.008120038051509,0.0034615312112761,-0.00298187235942,-0.0086317745179432,-0.0110268231009381,-0.0089186883833813,-0.0029370215005401,0.0045437168634255,0.0103599644930631,0.0119499732227208,0.008534760251166,0.0015070522201298,-0.0061751088189066,-0.0112957908818847,-0.0117598968504181,-0.0074264895005699,-9.789173976387233e-05,0.0072453086777109,0.0116241468496388,0.0112343886393244,0.0061995901602466,-0.0014143274698473,-0.0084025061601393,-0.0117721178234781,-0.0100754456251059,-0.0041007631230413,0.0034526584131468,0.0092126687402981,0.0107090596612193,0.0075074350753988,0.0013336494987228,-0.0048575696718438,-0.0083625114572747,-0.0079743868722159,-0.0043764582199109,0.0004357591273144,0.004289883854001,0.0058607089591731,0.0050621670315443,0.00272963997864,-4.144886855375442e-05,-0.0024012335128241,-0.0038537297420261,-0.0041242616118904,-0.0031037853956221,-0.0009851453002993,0.0016021013248678,0.0037121332818652,0.0044743766019545,0.0035119233914818,0.0011198212488256,-0.0018688356857638,-0.0043988901804662,-0.0030377505273683,-0.0047819249971915,-0.0022470093960929,0.001328184071962,0.0047338309289293,0.0066021713567057,0.0059097266597706,0.0025241601167879,-0.0025021705087736,-0.0071514210946995,-0.0092109660026704,-0.0073259221581841,-0.0018317109286825,0.0051343773191983,0.0104469036759092,0.0114433792380268,0.0073042198265298,-0.0003993363770502,-0.0083411116813508,-0.0129669723884884,-0.0121390925284617,-0.0060913336759003,0.0027088641259512,0.010641725934831,0.0144254633541465,0.0124087730357854,0.0052181743238947,-0.0044379318053437,-0.0127453802114463,-0.0162298553265589,-0.0131716196492187,-0.0044366201267593,0.0066771413760336,0.0156306028131532,0.0184852333930032,0.0136582944744505,0.0027867589849371,-0.0097846078412216,-0.018761110386109,-0.0201679178951838,-0.0131306782772836,-0.0003618805002872,0.0129015859983547,0.0210913515882753,0.0206923815781219,0.0117661968624991,-0.0020612149192363,-0.0151266846376443,-0.0220943107844565,-0.0201497714696378,-0.0101239700921728,0.0038851424172558,0.016204133007338,0.0218928509960579,0.0187531353816656,0.0082245492823188,-0.005241128179363,-0.0161053930065201,-0.0201228740615042,-0.0160753332210792,-0.006089467305122,0.0055003924973509,0.0141021772462119,0.0167103756320748,0.0129086417252165,0.0047482097480365,-0.004304903579336,-0.0108415592466657,-0.0127920315591985,-0.0100383188759432,-0.0041849322174914,0.0023048297602104,0.0071457808155048,0.0089921455716138,0.0077074951817856,0.0041844447659571,-0.0001175910649997,-0.0037363668708092,-0.0056965260709133,-0.0057527110884144,-0.004294935575928,-0.0020039372034932,0.0005006282132144,0.0027926809912062,0.0045237307252849,0.0052537642517788,0.0044877769935935,0.0020089732334112,-0.0016921024722934,-0.0052851691844127,-0.0070526504188661,-0.0058131830248041,-0.0017714660951156,0.0033355606955414,0.0070225380639444,0.0073726846937558,0.004115064818965,-0.0011776593293008,-0.0058863805281082,-0.0076867537912159,-0.0032296226095176,-0.0010863096207642,0.0037938326069558,0.0063791411949755,0.0053931113818793,0.0014694853515416,-0.0031986078497258,-0.0060488792909882,-0.0055630514894673,-0.0021035755011632,0.0023327201941838,0.0053039642197061,0.0053290735533431,0.0026632399275155,-0.0009856396598189,-0.0035679256964159,-0.0039153765694546,-0.0023272309693777,,,,
