0.0160175476702139,0.0138892994007098,0.0053318399195194,-0.0064864239884913,-0.0164784504576201,-0.0198715599485004,-0.0145688017903757,-0.0024364636270362,0.0112842972643921,0.0203311642025528,0.0204467984494502,0.0115135224546444,-0.0023632789664504,-0.0148758218089012,-0.0205504414280286,-0.0172324684079096,-0.0068537899953482,0.0057309986288809,0.0151138246061536,0.0177030609756599,0.0130393988614355,0.003627678447332,-0.0064216880740165,-0.0131934278629309,-0.0144282682331957,-0.010155246150105,-0.0024128667735999,0.0056933785158375,0.0111851673349046,0.0122398441571621,0.0087380412013434,0.0021860646182953,-0.0049150267086714,-0.0099856008548377,-0.011233477026748,-0.0082255529474897,-0.0020524493445536,0.004968578822729,0.0100614205115943,0.0110704911643846,0.0074430403852346,0.000605250094572,-0.0065567091694353,-0.01094088477406,-0.0081406894847817,-0.0058580905010291,0.0011805924580059,0.0073063929930696,0.0098844376854119,0.0079425011693668,0.0025125619147072,-0.003881010639235,-0.0083370358692955,-0.0088434009106125,-0.0051841453384758,0.000921727078814,0.0065744902927005,0.0090490076607271,0.0071150115288239,0.0016545833106242,-0.0047480633127536,-0.0090439224305981,-0.009173858905613,-0.0050360796912973,0.003971250433112,0.007316653438551,0.009743742466166,0.007602120554499,0.0019033590576618,-0.0047063597111089,-0.009251145018556,-0.0098288265837624,-0.0064164324963491,-0.0007105682013976,0.0048306408878338,0.0081611976783325,0.0108928500889738,0.0058164721714709,0.0014571388956611,-0.0033720253190349,-0.0073434513005863,-0.0093054346625201,-0.0085015487583142,-0.0048467518032128,0.000854947688255,0.0069384443863086,0.0112623315099356,0.0119148235494705,0.0080506331793382,0.0005231432140824,-0.0080864044795127,-0.0142790513986829,-0.0151065543711577,-0.0096594147772262,0.0002277434924884,0.0105488494465471,0.016828448525092,0.0161812348270381,0.0087151745283047,-0.0024429720712329,-0.0125371835498035,-0.0173159403295119,-0.0148897327215549,-0.0064734769213725,0.0042495864454678,0.0127769847228688,0.0181787947311597,0.0119348923717189,0.0032707598804411,-0.0065694697454905,-0.0133956145542464,-0.014389874621099,-0.0093311711948316,-0.0006392803087472,0.0077728673350462,0.0122926724855106,0.0136907835398148,0.0052550725918778,-0.0027118436445807,-0.0091850560790725,-0.0114460887544604,-0.0087263711098524,-0.0024602063525429,0.004448113234301,0.0089775860306875,0.00932661435831,0.0056237363627349,-0.0002682893690271,-0.0032083722877709,-0.0085095876727019,-0.0078186950991761,-0.0042645182331381,0.0005026608255879,0.0045482390603233,0.006400771241723,0.0080607106335093,0.0025767035020145,-0.0012680910400352,-0.00446457420446,-0.0058357056922266,-0.0049765371171087,-0.0023774886625093,0.0008266807654301,0.003362371434471,0.0043496109502204,0.0036200452047855,0.0016917282129779,0.0019387153513072,-0.0023615043132071,-0.0033187560424125,-0.0034083834395614,-0.0027845614508768,-0.0016269982354047,-8.738842826627762e-05,0.0016571364057633,0.0032882528664133,0.0042837136101843,0.004031368685393,0.0021514901481003,-0.0011094391505375,-0.004690222399224,-0.0069826853496672,-0.0065626044307753,-0.0030516245592102,0.00241366614166,0.0074928746326301,0.0096927393478269,0.0076521430838559,0.0019583453399873,-0.0049932830319842,-0.0100734184884154,-0.0108967735029928,-0.0069610469615854,0.0001036175812751,0.0072607882678539,0.011396798359827,0.010654775928394,0.0052362294425059,-0.000146949237207,-0.0096830423615661,-0.0128539649568526,-0.0107164116915991,-0.0040715528498665,0.0042955161463584,0.0108002845822459,0.0126642738290106,0.0091589561099902,0.0018843939827546,-0.006010570928822,-0.0112382030881259,-0.0117451773729432,-0.0074882955185665,-0.0003569299000741,0.0066753462176063,0.0108065659820023,0.0105442522941818,0.0062381894258643,-0.0002037578818164,-0.006225480752659,-0.0096748777271917,-0.0095234352694055,-0.0060481482305323,-0.0005706483169329,0.0050279483185234,0.0088580902606341,0.0095711257257118,0.0068282887630734,0.0015226090446916,-0.0044317189323038,-0.0087741746250036,-0.0098060201212444,-0.0071182664060284,-0.0017766992642211,0.0041292863120923,0.0083502222500815,0.0093550830458497,0.00687039341765,0.0019169694272032,-0.0036094029695154,-0.007635355363267,-0.0086615200622611,-0.0063363654196274,-0.0016338671787395,0.0034957449280161,0.006929321454644,0.0073077042275062,0.0046596278245802,0.0003779113255485,-0.0034759992511597,-0.0052116826745162,-0.0043525849898073,-0.0018017372993793,0.0007867845183697,0.0020512073428696,0.0017053630908902,0.0005518078931391,-0.0002383016220506,-1.7918228875559625e-05,0.0009218344164621,0.0016667354582003,0.0014213230169489,0.0001017943252296,-0.001620287178878,-0.0027869531423971,-0.0027539533590954,-0.0015229771901094,0.0003295670015221,0.0019800646327337,0.002717221338772,0.0022178695291638,0.0031918310685782,-0.0011791308300706,-0.0025180855151224,-0.0026588571595321,-0.0015449736021375,0.0001360114790219,0.001301654085804,0.001168562160379,-0.0001691465702334,-0.0017142116759014,-0.0021732747269889,0.0016427477925232,0.001686083736638,0.003822819305612,0.0038265835079574,0.0011018319955256,-0.0032116098820018,-0.0067239101615541,-0.0071643929071759,-0.003816846504925,0.0019086492850799,0.0071686292766469,0.0092400030731617,0.0070028812005917,0.0015066255728204,-0.0046338827872823,-0.0085971264652621,-0.0087119894169065,-0.0051511978808367,0.0003041468391849,0.0052203969053874,0.0076516131669535,0.0069042718073405,0.0036357676254198,-0.000628619537494,-0.0042227792090092,-0.0059559490030449,-0.0054262058179163,-0.0030278463316277,0.0002593057004934,0.0032149231838089,0.0047871646280494,0.0044629704593662,0.002458980663715,-0.0003703168581392,-0.0028820199199545,-0.0040951241949153,-0.0035552524440283,-0.0014995966797568,0.0012108033720236,0.0033854503330877,0.0039754190780021,0.0025758024003658,-0.0002786475685828,-0.00324285270227,-0.0047501018182354,-0.0038241278516545,-0.0006917424886844,0.003184103958297,0.0057521538148348,0.0054340400223214,0.0045457410506545,-0.0029757736701272,-0.0071993531241556,-0.0083754440050907,-0.0056237517321007,-1.7183688252730213e-05,0.0058412443753581,0.0090989004689216,0.0081337505074733,0.0034261619176018,-0.0026931495630387,-0.0073034175220832,-0.008430917001014,-0.005957952242746,-0.0014257355052669,0.003012915491988,0.0057335248745114,0.0061932795255978,0.0047518111236124,0.0021385097143655,-0.0009309405048771,-0.003785223652081,-0.0056758494500385,-0.0058460992738664,-0.0039060491980853,-0.0002655718736019,0.003779398007242,0.0065169649900904,0.0066577671646023,0.0040523230109834,-0.000174818503806,-0.004178156883352,-0.0063010320320172,-0.0058192434270712,-0.0031569346977816,0.000440514077084,0.0035201279559865,0.0050022790303358,0.0045184863448045,0.0024524079792357,-0.0002671471937355,-0.0025383910999468,-0.0035206278713899,-0.0029838663362509,-0.001403107492754,0.0002996759417578,0.0012729384861381,0.0012237267367538,0.000559123379261,6.707571671456249e-05,0.000330022753084,0.0012591939666487,0.002085342848129,0.0018613353754046,0.0001765715760624,-0.0024105405596811,-0.0045670523252331,-0.0049265521818152,-0.0029136393734845,0.0008551055562629,0.0048066311600345,0.0071261882962628,0.0065883934757528,0.0031419721284875,-0.0019896930510041,-0.0067456875389759,-0.0090500347284979,-0.0077044653370095,-0.0029858171107243,0.0033336213634884,0.0086234452885597,0.0104956377606549,0.0079183153646452,0.0018006401781448,-0.0053086454706995,-0.0103345494905339,-0.0085942536033095,-0.0073284775914166,-0.0007834998961707,0.0056999903260262,0.0095138754115012,0.0093247950020852,0.0054614811312976,-0.0003695509448058,-0.005827455105938,-0.008837133394846,-0.0083474455250885,-0.0046902918077257,0.0030803960321852,0.0052923883102984,0.0075193025984593,0.0064082218194812,0.0025594092269056,-0.0022578590792645,-0.0059024126564539,-0.0068076131942135,-0.0046655255372732,-0.0005437544986874,0.0036198549331822,0.0059173822652995,0.0053535275845383,0.0022970643918552,-0.0017184974796549,-0.0047516365133384,-0.0053936271979905,-0.0034266487747053,0.0001188063978239,0.0035147322179989,0.0051949254854727,0.0044776946610174,0.0018007102401495,-0.001597223352331,-0.0043050548136763,-0.0053112232921032,-0.0042820030035662,-0.0015595632213946,0.0019706897968307,0.0050644521717167,0.0064200044575836,0.0051667749617654,0.0014147639888663,-0.001007577655135,-0.0074800428609622,-0.0085842031245651,-0.0061178873645111,-0.0010534794853169,0.0043755096076183,0.0078024191994533,0.00791613307142,0.0049956319353387,0.0005409711362093,-0.0036412721286488,-0.006255695417242,-0.0068138199283196,-0.0054539505876329,-0.0026357821832549,0.003480878653756,0.0044588051890134,0.0066168882963751,0.0064322396434297,0.0036423070139939,-0.0008764267329778,-0.0052932647569707,-0.0076213113549742,-0.0067530238782425,-0.0030983406264423,0.0016110478098882,0.0052464004209634,0.0063651396869155,0.0048311222857905,0.0016977146967852,-0.001469946545467,-0.003397483796935,-0.0036200707436049,-0.0025274144004213,-0.0009961002811019,0.0001557335890332,0.0006009457373683,0.000599293395554,0.0007076908548394,0.0012841763372573,0.002124177726353,0.002519156185591,0.0017503902701873,-0.000301687093109,-0.0028803474214464,-0.0046581038658076,-0.004484257604724,-0.0021240924309039,0.0014824305042684,0.0046372148501444,0.0057641769021702,0.0042561519464682,0.0008088722053178,-0.0029332790963361,-0.005207172652347,-0.0049894585433198,-0.0024632775911833,0.0010995072625614,0.0039529523463033,0.0046996742235312,0.0029655984916668,-0.000372437467774,-0.0035498297611197,-0.0047711971844231,-0.0031909382460682,0.0005123252523321,0.0043683969113085,0.0061263163555182,0.0045247346907309,9.254967991547952e-05,-0.0050157633133729,-0.0081024159180495,-0.0073544103605513,-0.0028422125658326,0.0034576297363609,0.0086242038804111,0.0102079678551466,0.0073618136863312,0.0011749740236232,-0.0058485379096149,-0.0108492339849313,-0.0117426356797741,-0.0055279575166783,-0.0010381390849922,,,,
-0.0059373353340642,-0.0043764570198208,-0.0010884537674406,0.0028037720628581,0.0058157662346019,0.0066517774789249,0.0047866126204221,0.0008064431252744,-0.0037153995957971,-0.0068332610671915,-0.0070957737776579,-0.0042568869809977,0.0005300970179726,0.0051620545976141,0.0075140780960129,0.0064537140035082,0.0024559294767589,-0.0025561325810768,-0.0061580307876328,-0.0066884184017903,-0.0040995803617617,0.0001055134602958,0.0037643410932932,0.0052057478616188,0.0040282315576368,0.0011645899688846,-0.0017194439185589,-0.0031474341466164,-0.0025991485362517,-0.0007215216963224,0.0011315049422297,0.0017605102432085,0.0008567604829943,-0.000844425015218,-0.0020732688147555,-0.0018526470817541,-0.0001212562572655,0.0022038296071135,0.0037337582459256,0.0033915497364904,0.0010573409478679,-0.0022714618095255,-0.0049240532795509,-0.0054110583866501,-0.0032485958074946,0.0007096975365577,0.0046396232275852,0.0066345674183216,0.0056538494302907,0.0020453203891603,-0.0026105597408255,-0.0062356689691273,-0.0071962262319429,-0.005021845814428,-0.0006113233688027,0.0041427860235477,0.0071620069062161,0.0070980015236959,0.0039534242129653,-0.0008991082518941,-0.0053320035456816,-0.0074267473723677,-0.006328024924757,-0.002592462337506,0.0021088652114565,0.0057675400408882,0.0069177984530624,0.0052231447094189,0.0015376050505676,-0.0025387992655967,-0.0053761829942779,-0.0059768322121115,-0.0043107285894818,-0.00121585484905,0.0020445886786196,0.0043291237066561,0.0050105011093569,0.0040729587646348,0.0019560265635228,-0.0006860166088531,-0.0031533131547298,-0.0047733794525966,-0.004977829587163,-0.0034823110223597,-0.000535518569563,0.0029512550006025,0.0056086216919655,0.0061834673880832,0.0042227710117118,0.0004301444223462,-0.0035998240695197,-0.0061634551695438,-0.00628070411038,-0.0016043106780642,-0.0007408980277128,0.0023739222147291,0.0041814992167765,0.0043587401522472,0.0032055100073779,0.0013029196061884,-0.0007720985260396,-0.0025556450736866,-0.0036770559329163,-0.0038357771705169,-0.002866749720302,-0.0008858163897911,0.0015981812078598,0.003749039891273,0.0046961846029721,0.0039383609381134,0.0016382928224928,-0.0013717423325417,-0.0039068694589796,-0.0049366818107613,-0.004045273369068,-0.0016203744195187,0.0013203667423711,0.0035811537634422,0.0043068768294387,0.0033339574535463,0.001217486779663,-0.0010681028709526,-0.0025964516715817,-0.0028885069795133,-0.0020631539917172,-0.0007021701348568,0.0004741843643549,0.0009597299846942,0.0006877494765909,3.6578271750713174e-05,0.0020951980498846,-0.0002304914116108,0.0004800100281038,0.0011877309316221,0.0012187782070396,0.0001970241216673,-0.0016300668375741,-0.0033876774310198,-0.0039668392541621,-0.0026481708929013,0.000375082534722,0.0038995634320613,0.0061815714027243,0.005817750978171,0.0025965551819101,-0.0022021637748008,-0.0063325283804182,-0.0077172037209019,-0.0055672482855523,-0.0008392203939155,0.0042344109406171,0.007275600640015,0.0069361734050748,0.0035097426617901,-0.0012996580449372,-0.0052735948622979,-0.0042523431863685,-0.005367025423326,-0.0020756796845214,0.001469574750863,0.0037786686847615,0.0041384019391821,0.002784880736779,0.0006400855660055,-0.0012275316315704,-0.0021458368956098,-0.0021048247109879,-0.0016010208551897,-0.00117159698044,0.0015262132583774,0.0017289310138532,-0.000303923607942,0.0003742338904437,0.00089822601605,0.000863036634104,0.0001527539758603,-0.0008916578279493,-0.0016190547940015,-0.0014812545206498,-0.0004495351472649,0.0008792247098913,0.0041016816915397,0.00106697941229,-0.0006335172836083,-0.0025536782153716,-0.0033630025817816,-0.0022096454344101,0.0005974671774061,0.0035987023467446,0.0049636391457542,0.0036083110087954,-4.686559330942319e-05,-0.0041874281950929,-0.0065635412536591,-0.0057541769743444,-0.0020026338710621,0.0053454500653724,0.0062589372370342,0.0088366380035899,0.002844386067169,-0.0025931891525267,-0.0072520782773669,-0.008666982979986,-0.0059285218497323,-0.000221445117441,0.0057173709053663,0.0089686269602334,0.0079222580311306,0.003094297974797,-0.0031591067338109,-0.0078422989585124,-0.0087791987411371,-0.005610568155173,0.0001001635394485,0.0056496379484887,0.0084771677918207,0.0073469480116836,0.0028794147284681,-0.0028043274669849,-0.0071188518646691,-0.0081950676211451,-0.0056441797874857,-0.0006190746401628,0.0047454230211828,0.0082031316222118,0.0082459846374911,0.0046861276590006,-0.0011963984344074,-0.0070363190767007,-0.0102556252791138,-0.0091674120366102,-0.0038565706551257,0.0036361553814692,0.0125310980285445,0.0121973469169625,0.0086699141999386,0.0005906437671323,-0.0085602871188889,-0.0144920369139401,-0.0141743242275674,-0.0049104894280186,0.0028989703211261,0.0120313711206922,0.0156945627128391,0.0120991358339009,0.0028200385381775,-0.0079093341548666,-0.0126488838507948,-0.0155955922897072,-0.0091688536213349,0.0010061322144677,0.0101757014381655,0.0142603991837321,0.0117432040528202,0.0042332496766083,-0.0045009432345781,-0.0104487674197227,-0.0112298215685121,-0.0070388354801237,-0.000300395349334,0.0056859321618016,0.0083683378515203,0.0070252855014382,0.0028475923465292,-0.0018862637077326,-0.0050137799060216,-0.0054484541625187,-0.0034940858726469,0.0020110214901053,0.0019389861327551,0.0026703617085802,0.001623184781297,-0.0002854837932105,-0.0017471377737025,-0.0018576984940287,-0.0006253139167856,0.0010944864029164,0.002171297108283,0.0019049642240293,0.0004299508117369,-0.0013986042749509,-0.0025317226154498,-0.0023351387751554,-0.0009303662264043,0.0009056613642154,0.0021988845938516,0.0023192446206404,0.0013038203713396,-0.0002029597184249,-0.0013450676812312,-0.0015565261503806,-0.0008746898227156,0.0001241309405624,0.0007227135206254,0.0005348034102682,-0.0002525556844732,-0.0010109212171531,-0.0010811744536583,-0.0002090883285113,0.0012447197044071,0.002438819839944,0.0024774016662034,0.0009434455207109,0.0007582742059191,-0.0043920872821222,-0.005572747050557,-0.0043196682967668,-0.0007561981360306,0.0037415849076725,0.0070544669614801,0.0073396829538473,0.0040584694274064,-0.0015531044092828,-0.0069126425181354,-0.0093194796464092,-0.0073978883078581,-0.0019360404802126,0.004441555435794,0.0086500040011676,0.0087812823517544,0.0050450426311835,-0.0004932569287958,-0.0051409957638575,-0.0070005871113519,-0.0057837263963473,-0.0026590121719407,0.0006268846804011,0.0027414724138749,0.0033079144466498,0.002798300671559,0.0019865064219914,0.0013754370625669,0.0009476708359401,0.0003323611863455,-0.0007897448894495,-0.0023415022034633,-0.0037834212210251,-0.0043516968101658,-0.0034532348898521,-0.001009793290384,0.0024023067710183,0.0056674447580933,0.0074702875101448,0.0067785125173594,0.0033331887548546,-0.0020478514222487,-0.0075534137255277,-0.0109374648361783,-0.0104228669919523,-0.0055969663829543,0.0021452464606726,0.0099258180945239,0.0144637101104835,0.0135052883787903,0.0069493194868851,-0.0029250743130306,-0.0123106792894002,-0.0174295724966518,-0.0160592214489485,-0.0058986890471777,0.0029394194001187,0.013753070343547,0.0196954812796002,0.0179431610618083,0.0085366800139808,-0.0052217144099209,-0.0177711278661663,-0.0235388539523527,-0.0195001020115749,-0.0067884024577964,0.0095214886987143,0.0224636743517615,0.0261973572025175,0.018665580947824,0.002699219001371,-0.0149998417701647,-0.0266683269555014,-0.0269317646640882,-0.0153509712484212,0.0031840340602053,0.0205240135022754,0.0289305193484509,0.0246511404392728,0.0096738023118027,-0.0092215666573527,-0.0236613806550654,-0.0275415187887355,-0.0196679698854314,-0.0039887931931962,0.0124945375975167,0.0229553743434916,0.0235682443805178,0.0147951079845984,0.0008011040594507,-0.0125403963925824,-0.0201082436161609,-0.0194527308045452,-0.0114915018604178,0.0001575801987255,0.0108143470824832,0.0166215380465901,0.0159191280672344,0.0096121979703904,0.0005008861259609,-0.0080005763539507,-0.013125277716154,-0.0135232159217545,-0.0094299914205101,-0.0024014467154624,0.0051871654572501,0.0107924276521145,0.0124676176322664,0.0120686267491421,0.0030784772500812,-0.0046536546860662,-0.0107172051174594,-0.0127601278106986,-0.0099754987069857,-0.0034639208918168,0.0042089413422069,0.0100512835436168,0.0118383178257273,0.0089796291327799,0.002720219171381,-0.0043991892182749,-0.0095880544092514,-0.0084279251687004,-0.0081233004335398,-0.002536475529365,0.0035076900541339,0.0077298433300996,0.0087307820650055,0.00639718660943,0.0018223374806147,-0.0031705330213162,-0.0067116572341174,-0.007543989072794,-0.0054468161607232,-0.0012934432493902,0.0032687829180156,0.0064165131286734,0.0068468857954778,0.0043405986622535,-5.318755715006935e-05,-0.0043747866624495,-0.0066028928357753,-0.0056525885674864,-0.0020022481014185,0.0024615764754184,0.005394029232526,0.0052716292339299,0.0047546269388358,-0.0019372887163192,-0.0050418599257098,-0.0054938668294374,-0.0031967792740597,0.0005356431383655,0.0037656335489782,0.0049422691396563,0.0035976096586817,0.0004673843574239,-0.0029142765406886,-0.0049170374955015,-0.0045338609484097,-0.0018518283870259,0.0019291007623302,0.0049866133533588,0.0057113752624348,0.0060041337698962,-0.0008781458433826,-0.0055693679145543,-0.0083177786288061,-0.0074846318078852,-0.0029464408184938,0.0035970930192356,0.0091967726670157,0.0109633051728812,0.007547982802557,3.876383804346387e-05,-0.0082937043107214,-0.0109448704232721,-0.0127010586983048,-0.0061307951038751,0.0033591349091755,0.0114215567808784,0.01435800108598,0.0108668173212637,0.0026128544972666,-0.0066273511896668,-0.0127790588047902,-0.0133238711334677,-0.0083116962877655,-0.0001342942665679,0.0076917455123362,0.0120618590683462,0.0114590376480847,0.0063875266373895,-0.0009609626400705,-0.0076042908986676,-0.0109207023728715,-0.0096830624554473,-0.0045830400280707,0.0020412286702098,0.0072526322759396,0.0088970211937805,0.0066104399943743,0.0018826462768366,-0.0028516663662384,-0.0030544757782361,-0.0055913825004968,-0.0038158494360581,-0.0017303101180227,0.0020937539870253,5.996586899128402e-05,0.0003267990728082,0.0011131358884566,,,,
0.0016360263703048,0.0018431113719857,0.0010971155910352,-0.00012733830475,-0.0010784974810735,-0.0011156252857494,-0.0001080832216528,0.0014007558608663,0.0024230744619143,0.0020824365152519,0.0002000926195171,-0.0024565032621605,-0.0044742606993521,-0.0045373013083354,-0.0022125709330325,0.0016862156959651,0.0053908388738438,0.0069900978515064,0.0053654039083929,0.0008316953319936,-0.0023265459157146,-0.0090383909602335,-0.009604608567549,-0.0058094498844384,0.0010277651407475,0.0079287622508417,0.0115633229165974,0.0099191740168533,0.003440841396064,-0.0050393025249041,-0.0116094925946041,-0.0131651202409529,-0.0064138229073272,-0.0007656250421576,0.0075984732534343,0.0125077800724571,0.0119622813423188,0.0063720497950726,-0.0018072248734435,-0.0092190537400063,-0.0129712601909419,-0.0092049349370741,-0.0060521849398355,0.001671629841592,0.0084411493783571,0.0117197342350182,0.0103919663205404,0.0051313090364138,0.0005741766749963,-0.0080982560365751,-0.0112368577062553,-0.0104494087963541,-0.0062554071290045,-0.0002322866839273,0.0056268543804264,0.009543094552327,0.0103781187204717,0.0078593086519748,0.0026666480628402,-0.0036418750402107,-0.008971276673347,-0.0113355146730022,-0.0096442476705966,-0.0042814730528026,0.0028737142238627,0.0091029202505571,0.0119485480040782,0.0102624667740218,0.0047026877433023,-0.0025542485449595,-0.0087324879444886,-0.0115690296613573,-0.0101330779362664,-0.005060176179523,0.0017861300640791,0.0079890028126388,0.0113340886649248,0.010503388105153,0.0056062826271324,-0.0016546733777085,-0.0084378166858756,-0.0118633628702455,-0.0103494020730104,-0.004478784345372,0.0031571287965006,0.0091458195900402,0.0108834550076974,0.0077977769304214,0.0040267209293503,-0.0050081052198418,-0.0090418667152404,-0.0091312747900005,-0.0056050734006766,-0.0002448035520831,0.0046016290257905,0.0070506968762168,0.0064019638812616,0.0032831281342047,-0.0007600691154966,-0.0039895646027331,-0.005191839375578,-0.0041099038801384,-0.0014539932848863,0.0014748123069559,0.0033738933518205,0.0034991355419671,0.0019695487603038,-0.0003177274700277,-0.0021435690535788,-0.0025952429935226,-0.0015440896254684,0.0003056398419371,0.001837991464135,0.0021697662357282,0.0011393429672975,-0.0006276466233141,-0.0020872544032891,-0.0023644566585348,-0.0012465182094855,0.0006807426475213,0.0023433449047406,0.0027816756470265,0.0017041563530986,-0.0003363654476794,-0.0022464816727352,-0.0029936188844598,-0.0021650606055417,-0.0001902336953933,0.0018810671891389,0.0029318162515234,0.0023841792089678,0.0005376538131817,-0.00156471392796,-0.0027043771754458,-0.0022113541952422,-0.0004578208358099,0.0011857205370576,0.0010057097023809,0.0028423538670911,0.0021392384127305,0.0006124195600526,-0.0019972537349673,-0.0040073058651563,-0.0077880118006783,0.0001314286975406,0.0057394055205923,0.0074056493557934,0.0070154130379938,0.000256578860065,-0.0039795697596633,-0.008513775780052,-0.0099815156940114,-0.0061964374860784,0.0036099950217683,0.0117076242821749,0.0111235502951017,0.0082781378001757,-0.0004656405449136,-0.0072438286780184,-0.0113737882113623,-0.0108428149619253,-0.0057535590228113,0.0017456654835215,0.00847690815178,0.0116621198138721,0.0100895957343651,0.0045360608821862,-0.0026564463244952,-0.0086013946841304,-0.0110417757418518,-0.0092041968769678,-0.0040021462415393,0.0024515387156774,0.0077487897959862,0.0100805394971499,0.0087837687644885,0.004433126923969,-0.0014363109630192,-0.0068215612387867,-0.0098358318391221,-0.0092956688763525,-0.0051967350469165,0.0011072678023509,0.0072226914579176,0.0105781847186107,0.0095670661530487,0.0044266309003377,-0.0026867122273023,-0.0085983775800761,-0.0106139865331666,-0.0078501618136252,-0.0016777375811412,0.00496895353414,0.0090439528840348,0.0088367282562418,0.0046937836890557,-0.0012818233272473,-0.006314732595783,-0.0082412977361781,-0.0064013519756176,-0.0018054895041021,0.0034103691649541,0.0069535382347577,0.0073392509929052,0.0044549085674496,-0.0004889258906272,-0.0055632280292301,-0.0064956668966224,-0.007426558878147,-0.0037704419169684,0.0034262857333931,0.0078207334662209,0.0085096836814511,0.0051156769735237,0.0003122810624725,-0.0052856641774013,-0.0082608981025223,-0.0104696809741444,-0.0017257418911526,0.0057821457286534,0.0070117801337953,0.0063203473031673,0.0030591174045411,-0.0005622653539026,-0.0045819927422608,-0.0041074561959956,-0.0017810008164523,-0.0008096783465581,-0.0042231904426815,0.0023545784943811,0.0050626304722587,0.0028453607101833,0.0019110160913012,-0.004083503043719,-0.0006801458610899,0.0017140166101759,0.0023303412105843,0.0002924686382017,-0.0051116432869305,-0.0041805546753159,-0.0036614294034482,-0.0005094062516864,0.0059107852560868,0.0060780630273908,0.0068914952436179,0.0026678211369532,-0.0048162889512267,-0.0060175472048294,-0.0051834577642194,-0.0034721273893348,-0.0025747524541234,-0.0024390733356639,0.0034621982891244,0.0083021785032879,0.0078700327185289,0.0081893808358237,0.0020281129262333,-0.0037083774613733,-0.0132897191230976,-0.0113515324362807,-0.0082769173099601,-0.0050960650316514,0.0049063143488862,0.0148271133687609,0.0188434274485268,0.0163702651857158,-0.0002853659099402,-0.0120304641447236,-0.0237494936054742,-0.0202595546805014,-0.0061957948141159,0.0052649765323795,0.0163249578727424,0.0194764007118363,0.0149542997193991,0.0041254743708984,-0.0068602147443941,-0.0181005192642505,-0.0191113337722482,-0.0092583835704559,0.0046909179170478,0.0095632026228637,0.014383287182305,0.0101308354264221,0.0023201867583325,-0.0039417697362509,-0.0106886670527689,-0.0089380223651436,-0.0040495780867459,0.0019481234453085,0.0059187591935106,0.0078562023695121,0.0022347357897286,0.0004967506504541,-0.0041059267924668,-0.0055469982661118,-0.0042466550900131,-0.0002826666819233,0.0016860398110392,0.0052905012153217,0.0075352074407557,0.0045824509230704,-0.004702714424855,-0.0079716963384013,-0.0065282840903702,-0.0029989977253914,0.0004675775646328,0.0063496683448186,0.0063220984888284,0.0041888480328243,0.0009066141032453,-0.0023474250941245,-0.002080099986202,-0.0038753366551634,-0.0048046187611782,-0.0045685015423258,-0.0005812915155898,0.0059632090909001,0.0067098483753008,0.00497281029278,0.0041151723143664,-0.0033169821676959,-0.0068941536097678,-0.0072225395985946,-0.0042103195075437,0.0005772544592399,0.0048222190444992,0.0066074376015195,0.0052379824389502,0.0013914305772419,-0.0033697779300675,-0.004888780734639,-0.0046874886517604,5.991268827530485e-05,0.0014770909694005,0.0012930241351124,0.0011635257078387,-0.0015411658871003,0.0003531526272694,0.0017800016093114,0.0023911999986716,0.0042889135642168,-0.0001324260343678,-0.0028696570839021,-0.0052687861101171,-0.0059369094902483,-0.0039928373345918,0.0002741878801807,0.0052735520637573,0.0086937138169822,0.0086005594498693,0.004520883827617,-0.002102153760144,-0.0084185503175512,-0.0114723859431581,-0.0096601092980127,-0.0035799773121234,0.0041953257085432,0.0103164668726304,0.012203662919656,0.0091652183517515,0.0025876426105405,-0.004795734759967,-0.0101194684516028,-0.0115048211970867,-0.008658650146129,-0.0028222083114559,0.0038028255367815,0.0088834095144081,0.0107410547954972,0.0088519422800712,0.0039426050104372,-0.0022919929440427,-0.0077263759896454,-0.010458910364656,-0.0094468815880339,-0.0049514564872528,0.0014188858588581,0.0072113524282356,0.0100917144373027,0.0088869044672697,0.0066598096986752,-0.0020610897805367,-0.0072444076815441,-0.0094575766428738,-0.0081093424199875,-0.0040624482619147,0.0008838865078077,0.0073209110475369,0.0064392935413363,0.005415683804941,0.0049367426660181,-0.0011783589868044,-0.0040796378858274,-0.0053761898392247,-0.0048647361314055,-0.0029823221379853,-0.0005200439308569,0.0017425769990129,0.0032886471709239,0.0039091576707047,0.0035927233452029,0.0024037153970951,0.0004755828389092,-0.001874392379213,-0.0040376565237133,-0.0051837365600376,-0.0045770814592708,-0.0020267647979976,0.0017961696524912,0.0054390791578652,0.0072250805311563,0.0060746038239943,0.002158082530159,-0.0030255089400499,-0.0072522190884691,-0.0085845079422922,-0.0062927860784744,-0.0012371174913695,0.0044785368921024,0.0084277575503611,0.0089355186937943,0.0058014473531427,0.0003416599065631,-0.0052310207786091,-0.0087475038102822,-0.0089069394290421,-0.0056920989915917,-0.0003072944012269,0.0052731402369547,0.0089897882364661,0.0094216240228258,0.0063208972558917,0.0007511440961996,-0.0052638950786671,-0.0094787247615308,-0.0102706114907644,-0.0072537109713341,-0.001434145121855,0.0051280094558242,0.0100206341634273,0.0113306312927934,0.0083867722427021,0.0021193390777094,-0.0051739893870871,-0.0106603678326777,-0.0121149289191688,-0.0088842541969328,-0.0022139856143383,0.0052418932318138,0.0105347491523937,0.0116627830346687,0.0083733448653365,0.0021692336739959,-0.0044390792019195,-0.0090249287436956,-0.0101485709040014,-0.0077229919589863,-0.0028320083310332,0.0027628014680123,0.0071810309282857,0.0089484109587381,0.007463782621873,0.0032910265266363,-0.0019431335372658,-0.0061530110634475,-0.0076939901076443,-0.0061039630688874,-0.0022823625739509,0.0019788175529051,0.0048524492253352,0.0052957408711358,0.0034560937749337,0.0004915302772387,-0.0020864920302826,-0.0007108555466606,-0.0027745376196024,-0.0015284245708394,-0.0004234544481594,6.280367698208067e-05,0.0001083911268378,0.0001966926076161,0.0005806838203963,0.0010078146111202,0.0009370996711815,0.0025633003331854,-0.0013143440872832,-0.0023820777844207,-0.0023067894143053,-0.0008467842103095,0.0013437574551543,0.003005615357069,0.0030188382777385,0.0011253248733349,-0.0018315962941462,-0.0043085201109044,-0.0048766693582885,-0.0029968414269514,0.0006498822403239,0.0069088292028817,0.0063405606140705,0.0051353940209668,0.0034024270792019,-0.0046755788243529,-0.0090133806421549,-0.0098121340459941,-0.006247200051377,0.0004426957166445,0.0073879319878324,0.0114086449926495,0.0105564385980706,0.005076676325447,-0.002689064907874,-0.0093836951370806,-0.0121521725087541,-0.0098819712339112,,,,
-0.0029544376005185,-0.0030071117935318,-0.0020805046872194,-0.0003103183257603,0.0016937925039963,0.0031031450608571,0.0033090789429603,0.0022577734442017,0.0004712404445432,-0.0012447582413648,-0.0022214770376008,-0.0022356700866816,-0.0015468753580704,-0.0006705462368894,-4.645825430523354e-05,0.0001938144659904,0.0027191454687593,0.0002661734266415,0.0004118988299653,0.0005590353642805,0.0005638648516096,0.0003448291682026,-8.071400086643445e-05,-0.000617364889762,-0.0011266163334237,-0.0014434113253519,-0.0013971174157742,-0.0008781511290765,6.0751693563627064e-05,0.0011454865785891,0.0019449905843626,0.0020683370504569,0.0038770440521446,4.633185215217529e-05,-0.0015283053555057,-0.0028625691991198,-0.00351460194819,-0.0031970184874287,-0.0018375948427914,0.0003739233472198,0.0029223549135495,0.0049619977967297,0.005506381191358,0.0038670510635186,0.0001808760790065,-0.0043277701534231,-0.0076715158134616,-0.0080103724812558,-0.0047155591642303,0.0010668901765254,0.0068017145391764,0.009790100400686,0.0085677733007818,0.0036579252570159,-0.0027399398820957,-0.0078802777707411,-0.0097341793932862,-0.0077508795277168,-0.0028906697816701,0.002901661057715,0.0074632748420956,0.0091550970071435,0.0074017935370415,0.0028914912286386,-0.0026550786267646,-0.0071120619911806,-0.0087664493113869,-0.0070025802835104,-0.0025565918263209,0.0027773844257006,0.0068691242580889,0.0081065139434933,0.0060435462638345,0.0015883158125391,-0.0033551914765108,-0.0066750730805625,-0.0069674857103726,-0.0041837375211265,0.0003175730376336,0.0043875346443408,0.0061132717489512,0.0047588053861656,0.0011354562113474,-0.0028143273167463,-0.0050305675755256,-0.0044199221398739,-0.0014170702269346,0.0022882698690107,0.0046901568708302,0.0045289806794818,0.0019025580207897,-0.0018502574800661,-0.0048580231990231,-0.005612803974838,-0.003639505686195,0.0002992478553667,0.0044967359869845,0.0069867770606853,0.0064033763971622,0.0026901270149977,-0.0027033709806668,-0.0073478318797445,-0.0089465757564332,-0.0065282304887524,-0.0010640801276608,0.0073996697190368,0.0109479879634273,0.0077486931847676,0.0030444068369575,-0.0033899321511741,-0.0084017236573452,-0.0095809604615835,-0.006416865762611,-0.0004380556603315,0.0056019152930395,0.0090002648151232,0.0082629801794894,0.0062051873886809,-0.0027143345695208,-0.0082072134478465,-0.0102862095261726,-0.0078502396773883,-0.0017896433896035,0.005271998371261,0.0101011891503194,0.010373723564294,0.0058515650114479,-0.0014226239803407,-0.0080750317087899,-0.0110358320078351,-0.0090141835279245,-0.0030610955394039,0.0040239954723047,0.0090835431161209,0.0100629420801281,0.0068425887648536,0.0011061012720517,-0.0045923306325851,-0.0080273651792709,-0.0081745911080981,-0.0054129221570332,-0.0011015211748141,0.0031335931742782,0.0060131375117266,0.0068910262836342,0.0057271208518174,0.0029203089544891,-0.0008253314164447,-0.0045596832121879,-0.0071716629800051,-0.0076311823365284,-0.0054021056295207,-0.0008560123588802,0.0045955429524874,0.0088638248244034,0.0100036696846802,0.0071538502172032,0.0011066306062865,-0.0058550389084786,-0.0108521765091609,-0.0116505524160798,-0.0076798375580227,-0.0003719651716157,0.0073289370430418,0.01209074029004,0.0115266660423081,0.0100999065791111,-0.0002794686652547,-0.0115253947687085,-0.0128592022555831,-0.0115597886388242,-0.0098133270083742,0.0027963308600158,0.0107619273103406,0.016218115091373,0.0154406985054464,0.0043469825982849,-0.0071518170946099,-0.0134261775489996,-0.0170343192432214,-0.0108079679131131,0.0004356147468298,0.0102056985645167,0.0148224475319668,0.0126831609393472,0.0051192957267266,-0.0041963045044143,-0.0110758125667457,-0.0129303741728729,-0.0051464220408044,-0.0005041690566847,0.0017898870017121,0.0085336574817943,0.0120293788121613,0.0049925508071997,-0.0014455427219365,-0.0062092137818817,-0.0072825888394284,-0.0076604947058734,-0.0051329888839655,0.001472590385108,0.0065766654403298,0.0111471296937218,0.0113550710570224,0.0002363786889772,-0.0067505064050903,-0.0117464081469726,-0.0109917270026836,-0.0055205862189682,0.0018129871615823,0.0076532206414668,0.016184984571586,0.011232474471277,0.0030539842686542,-0.0089071310870049,-0.0095420726821986,-0.0178028746135796,-0.0073321182864209,0.0028864994376237,0.0090400169500762,0.0158326236152881,0.0078506887936402,0.0051651375693609,-0.0036752669460974,-0.0106744910095924,-0.0069006183490436,-0.0089855899289949,-0.0070059731200876,0.000863566534133,0.0074155310142957,0.0138988551387711,0.01155216823767,0.0071674756647805,-0.0023201816952464,-0.0150254139827049,-0.0132661145668434,-0.0118326349092398,-0.003834594485461,0.0057840267474598,0.0125413655909347,0.0188752605125547,0.010761311681724,-0.0011478448084081,-0.0103119087784705,-0.0153503575243272,-0.009303383347398,-0.0072015709121837,-0.0017861058943552,0.0056667080763027,0.0144256319059135,0.0126983958043646,0.0083497111161253,0.0013696939198936,-0.0068707472623012,-0.0129715561584707,-0.0152190637616278,-0.0099361995842121,-0.0004822896675281,0.0111266659397759,0.016838455738407,0.0129916212258187,0.0036874086127296,-0.0050350145837177,-0.0088106883662909,-0.0118540967845955,-0.0083926912706178,-0.0025448812377409,0.0026644543165387,0.0084899177747199,0.0081647299494052,0.006477250250776,0.0023494153120591,-0.0019751098516669,-0.0077575272452551,-0.0050435744000114,-0.0046650817133034,-0.0027949266432878,0.002690600282114,0.00267872097774,0.0054567702030083,0.0045189626533774,0.0022109237678686,0.0002881864822746,-0.0048517998370513,-0.0038037795273365,-0.0032147498938223,-0.0021462550452366,-0.0019392132667729,0.002468813020366,0.0052573147003118,0.0049160461687913,0.0026066084382406,0.0002236595786666,-0.0010753642336764,-0.0061934945253832,-0.0057306091344978,-0.0061913698275506,0.0010550395468828,0.006015127054001,0.008579119797866,0.0071692067461579,0.0021342973703925,-0.0042303828722275,-0.0094356759419121,-0.0088861539978236,-0.0047406121225941,0.0014725338607927,0.0070358739913546,0.0093598830500942,0.0097892356402525,0.0017037855041635,-0.0048697438868775,-0.0094125431389267,-0.0098195544049158,-0.005897230136082,0.0005607289678971,0.0066414262551522,0.0096689849887988,0.0084000576450046,0.0035315020776152,-0.0026681613448594,-0.0074133657609303,-0.0086745676837932,-0.0060961397003607,-0.0011073446472207,0.0038528638126621,0.0065921564089353,0.0062065272015355,0.0033507587444001,-0.0003255180453438,-0.0031437988425703,-0.004173408575431,-0.0034610186242251,-0.0017453143450005,5.466945651978406e-05,0.0012778800769772,0.0017246636390366,0.0016032240850662,0.0012856071062165,0.0010118099891672,0.0007312302911109,0.0002099118065388,-0.0006705819165111,-0.001683291364943,-0.0023188569021844,-0.0021144941843904,-0.0009955056055704,0.0006255683328729,0.0020532608187272,0.0026724684410373,0.0022526802421317,0.0010405396448418,-0.0003891649311374,-0.0014421385697405,-0.0018116007740505,-0.0016020972882102,-0.0011769217837634,-0.0008264061902001,-0.0005158257900499,6.174286926807909e-05,0.0011422004041861,0.0025244943333097,0.003498954476476,0.0031930308891782,0.0011643496381297,-0.0021276132317936,-0.0053169485859743,-0.0066954724206778,-0.0051137527709383,-0.0007529358324304,0.0046988106757876,0.0086781170875954,0.0089839491249923,0.0050254669191599,-0.0016445508901539,-0.0079360728128203,-0.0107559828900176,-0.0086550348106824,-0.0026283424716807,0.004420264802859,0.0092289672798853,0.0098172384249944,0.0063030591377365,0.0005724054504544,-0.0048299919279345,-0.0078797937738417,-0.0077587421020031,-0.0048970946141808,-0.0005727468463849,0.0036350182775811,0.0063400989153846,0.0067209055959778,0.0047386421341171,0.0011516115944046,-0.0027265427941101,-0.0054998040427411,-0.0062345889619699,-0.0048255037547265,-0.001982625280135,0.0036416416231504,0.005932738904158,0.0041713669573631,0.0032294304161012,0.001077065784519,-0.0014396340746739,-0.0034329848022584,-0.0042483846047914,-0.0036229489166096,-0.0017446283996737,0.0007839220266085,0.0030955493246266,0.0043247439315543,0.0039316090320934,0.0019635523111732,-0.0008820832054978,-0.0034750493253912,-0.0047062752964608,-0.0039978025691919,-0.0016172793775919,0.0013955708127291,0.0061802054802995,0.0041626707537917,0.0025704854202944,-0.000368506100605,-0.0032309482700284,-0.0046118793676823,-0.0038455044552208,-0.0013393791417686,0.0016402727682088,0.0036187722478453,0.0061524462293195,0.0017618000283705,-0.001107828270454,-0.0035278255342978,-0.0042725053803508,-0.0029486678808473,-0.0002098806294299,0.0025733700811855,0.0040092907117997,0.0033883120199851,0.0010414911082453,-0.0018242166520554,-0.0037346076816427,-0.0036995604583529,-0.0017245066750262,0.0011875859823762,0.003547567039354,0.0041336606068974,0.0025977251160213,-0.0003653461627646,-0.0033406653369075,-0.004841407932677,-0.003998375729875,-0.0010092374969567,0.0028507434601371,0.0057147702481182,0.005973457792702,0.0031439056478177,-0.0016965874471596,-0.0062492989485595,-0.0080704268230832,-0.0058947711976967,-0.0004694553330858,0.0056583286126895,0.0093837889644594,0.0086716204176823,0.003662422206185,-0.0033477355295783,-0.0090213561241272,-0.0105976656229202,-0.0072274275856575,-0.0004051645922156,0.0067085037808147,0.0107756113912349,0.009880345449692,0.0044550137574766,-0.0029354798655416,-0.0088440622055635,-0.0105931311558878,-0.0075074665094632,-0.0011561894086304,0.0054549101635733,0.0093129266073689,0.0087769278633243,0.0042895941229609,-0.0018905233772298,-0.0068073127082089,-0.0082426391886064,-0.0057614079589484,-0.0008368049148948,0.0039944164180988,0.0064683844891375,0.0056881339263672,0.0024180125074246,-0.0014950882162155,-0.0041680928169431,-0.0045914775433845,-0.0029593218598463,-0.0003560587574052,0.0019175339399012,0.0029726931176342,0.0026274847484786,0.00131785453587,-0.0002289483901148,-0.0013513327271587,-0.0016925666247747,-0.0012731056468526,-0.0004198925349609,0.0003955474984258,0.0007614009585191,0.0005228925565693,-0.0001077584862965,-0.0006321611467325,-0.0005652227863516,0.000198857023946,0.0012303499973751,,,,
-0.0038074867367946,-0.0051684662482649,-0.0038248342934328,-0.0005304820052329,0.0029229539755546,0.0047535985726277,0.0041473949440473,0.0015865110006182,-0.0015424188999983,-0.0037307437918456,-0.0040557260697406,-0.002503446011087,0.0001369539356026,0.0026638727533299,0.0039524908518782,0.0033929420947604,0.0011553101256472,-0.0018284822187313,-0.0042116256899064,-0.0023301007337131,-0.0033133145577019,-0.0003324455809159,0.0027251186278787,0.0044460303104695,0.0040576657043402,0.0017817300446205,-0.0012781528155007,-0.0036772986489704,-0.0043419102460961,-0.0030800017905315,-0.0006127816707779,0.0018657025731254,0.0033084695247395,0.0032617660121646,0.0019616549263118,0.0001263589486783,-0.0014100052363423,-0.0020753934331404,-0.0018044921926732,-0.0010167530381621,-0.0003044061539873,-9.279698002105254e-06,5.716559446323677e-06,0.0001955926772149,0.0008871631040331,0.0018947072402896,0.0025224406380794,0.0020050513983005,0.0001117790271791,-0.0025104923274052,-0.0045423526329307,-0.004685297982769,-0.0024550958864139,0.0014029295327444,0.0051530556350956,0.0068779876326959,0.0054596433464637,0.0012321537773652,-0.0040413892184418,-0.0078999568062185,-0.0083247652711763,-0.0047786217692799,0.0013749987557407,0.0073605883779627,0.0102483745262728,0.0084108410851783,0.0024327136563159,-0.0050409926938329,-0.010501287054879,-0.0112543509414519,-0.006759535676371,0.0010451252834314,0.0086092151758567,0.012419960011777,0.0106449881870988,0.0039937086809824,-0.0045883568209156,-0.0112380579356477,-0.012915049780713,-0.0087991680272926,-0.0007123934139101,0.0076693633957695,0.0125110679986171,0.0116492729673252,0.005643082456578,-0.0025378827000166,-0.0090587378234686,-0.0111571524366263,-0.0083966171134772,-0.0026000473410647,0.0033437554705962,0.0069926379367336,0.0098358071119302,0.0048731041072444,0.0010358620370735,-0.0025577115114215,-0.0047144023905403,-0.0050014969155119,-0.0037273880869479,-0.0016448913887434,0.0004308045001897,0.0019207074925045,0.0026173002758246,0.00264592920271,0.0022819681717352,0.0017157425208617,0.0009208697305517,-0.0002537088083989,-0.0018125258723194,-0.0033793781188175,-0.0042301805918416,-0.0036456027242957,-0.0014000709776446,0.0019207532965209,0.0050174638217522,0.0064155636004533,0.0052119535117038,0.0016376205893865,-0.0029053089841626,-0.0064214547050842,-0.0072706129700435,-0.005004489516708,-0.0006242655504776,0.0039047205452562,0.006616434761258,0.006454031559805,0.0036677237782973,-0.0004237625839033,-0.0040905825699903,-0.0059090297752924,-0.0052594074971337,-0.0024924116177845,0.0012284641268983,0.0043508098097482,0.005522079953471,0.0041653306428702,0.0008010545322881,-0.0006069106616372,-0.005807832729316,-0.0060887884756756,-0.0038051742628224,8.661223699112318e-05,0.0039499184778344,0.006165157930774,0.0058100278453235,0.0030328540132691,-0.0010309744963189,-0.0047532664915476,-0.0066881614783984,-0.0061239912391574,-0.0032993250253014,0.0007382815769566,0.0045091971978946,0.0065782260603802,0.0085244852416411,0.0076647574548692,0.0001213967462268,-0.0078133802413507,-0.0090084659681885,-0.0116661855672644,-0.0075964141876961,-0.0002880830290531,0.0076944145066471,0.0130496797676498,0.0130857689150441,0.0095189675513886,0.0014367941961263,-0.0098438058876546,-0.017778065057716,-0.0168336224642806,-0.0066102288931289,0.0010284468349425,0.0110621048478571,0.0185130652651958,0.0154720752844892,0.0070937457408418,-0.0029974995810376,-0.0114546453400043,-0.0155009752911975,-0.0150449237997253,-0.0094495482053634,0.0035729698780438,0.0100905756843999,0.0171502653379046,0.0176355454039589,0.0063889818751709,-0.0084204831499306,-0.0101153390353561,-0.0121567310582301,-0.0147948650193116,-0.0053402044622911,0.0059130449552822,0.0125638795486679,0.0123773827572905,0.0087774151273284,0.0013842154679926,-0.0081712159031066,-0.0105061304457948,-0.0076904672743953,0.000300391851838,0.0019160441280485,0.0039318122558743,0.0019359228907388,0.002814061642183,0.0028170856269401,-0.0012504516833672,-0.003215411432538,-0.0007553890859847,0.0005542729111545,-0.0007463700979195,-0.0012121159377504,0.001127301334206,0.0019435550302735,-0.0022460461904978,-0.0004733742421473,-0.0016992210034534,0.0010843118369933,0.0043661706725959,0.0016550954762363,0.0017565719901205,-0.0022368455818089,-0.0065018081118616,-0.0024511759444832,-0.0015446334465316,0.002369886277835,0.0022199159415341,0.0060544237315657,0.0063725432918564,0.0002991048334861,-0.004006844336855,-0.0085663201670939,-0.0098942568264431,-0.0047178479970003,0.0060163727589241,0.0110049760864275,0.0125970920810721,0.005781323091391,-0.0019805719308289,-0.011134869139948,-0.0153323667471294,-0.0102172072311534,-0.0022407224981544,0.0090916590315824,0.0163231528946078,0.0161430253673437,0.0061862848865935,-0.004938987833495,-0.0143497303048976,-0.0174920318303966,-0.0128084119041288,-0.0023801275939954,0.0091602344266944,0.0167862849180109,0.0172559963701773,0.0104041506853105,-0.0008807270480292,-0.0118894912944431,-0.0180206494020911,-0.0166703627716238,-0.0083441956067609,0.0035048874344518,0.0139127249706203,0.0185300293998645,0.0154889355703574,0.0061597402150693,-0.0055211943286416,-0.0147975687971884,-0.01808673468235,-0.0143391306887554,-0.0027700656670656,0.0054677538670555,0.013757619786338,0.0165751314973378,0.0130332489892302,0.0045846760886576,-0.0055769773360685,-0.013663478457279,-0.0166235154478835,-0.0132544021468944,-0.0047237748638808,0.0057523076205043,0.0140750025643148,0.0168961436593774,0.0130398950238149,0.0040477963251786,-0.0064365300121723,-0.0141886285567152,-0.0161679916334947,-0.0117625680523184,-0.002976562610066,0.0065104548461619,0.0129671188600643,0.0141493642721692,0.0100611245314368,0.002683961092685,-0.0050451457713611,-0.0104331954673193,-0.0119002367117955,-0.0093033592004418,-0.0037766908911226,0.0027363243550453,0.0080963542316322,0.0105951065153278,0.0094577244973672,0.0050847167745419,-0.0010498433227643,-0.0068409643292965,-0.010237883580554,-0.0074948270999268,-0.0062267593083228,-0.0004324538915565,0.0051432036906272,0.0084744687435765,0.0085363446187894,0.0055829331699851,0.0008877047185828,-0.0038395456797032,-0.0070571984934299,-0.0078176172654789,-0.0034836855534048,-0.0022705227121341,0.0019576182680879,0.0051775681106027,0.0062873719991493,0.0050086650017148,0.0019578359679554,-0.0016451574705634,-0.0044899798247373,-0.0031666599193206,-0.0049469137638865,-0.00275655440893,0.0001013793640052,0.0027450994133147,0.0044075611846429,0.0045776268332056,0.0031256653266124,0.0003848671505653,-0.0028453853555998,-0.0029344667113138,-0.006267942826608,-0.0047302808060183,-0.001096153102249,0.0033785578718047,0.0068224119744257,0.0075428897531129,0.0048945212479013,-0.0002615672974975,-0.0057951839347547,-0.0091863424671871,-0.0086818310165063,-0.0042050437703817,0.0024539777629341,0.0083546082809043,0.0107644782094157,0.00850395055967,0.0025530639192433,-0.0044289370214402,-0.0094076382460947,-0.0103862832443298,-0.0072127991773893,-0.0014647628445099,0.0044095930808834,0.0082041830003065,0.0087991703673399,0.0064123064036326,0.0022485731109478,-0.0021734101162515,-0.0056218273963306,-0.0074015640525189,-0.0072585497229128,-0.0051909545139823,-0.001438698085082,0.0033099141720867,0.0077470537777785,0.0101494390347355,0.0090683998168531,0.0042155877580287,-0.0030160915565383,-0.0098562051128068,-0.013290112177353,-0.0115004089616292,-0.0048530720772929,0.004120949921713,0.011765545794632,0.0148655152306963,0.0120299874273337,0.0043091578256009,-0.0052070125932886,-0.012654666946964,-0.0150076821997055,-0.0113419621141555,-0.0032032880396904,0.0060603693621256,0.0126920594357909,0.0140605896662236,0.0097248947993208,0.0016019387064202,-0.0068476310236436,-0.0120994850131131,-0.0120840694043535,-0.0070622766344158,0.0005525452588883,0.007343054419531,0.0104503753904376,0.0088035492052431,0.0034714016862843,-0.0004681307187569,-0.0076931102588931,-0.0088735877840695,-0.0063098695664112,-0.001346391491282,0.0037754717017398,0.0068698618120253,0.0067130075392743,0.0035391531706034,-0.0010959788912178,-0.0050409964047611,-0.0065348709825836,-0.0049851713802121,-0.0011807035245762,0.0031225194812736,0.006005524391599,0.0062068045674483,0.0036326031347159,-0.0006173835776081,-0.0047068093089281,-0.0068314232943033,-0.0059992860340343,-0.002491009328094,0.0022183255368992,0.0060688117446981,0.0073155726861311,0.0053370139136822,0.000977607867259,-0.0037825777840539,-0.0067454965395586,-0.006594215138667,-0.0035977608676948,0.0005228127668234,0.0060562490663942,0.0065363112378694,0.0020258222068674,-0.0009708471502432,-0.0029416793795395,-0.0026458879067811,-0.0004135006082815,0.0020906572195794,0.0029713345381313,0.0013471383994393,-0.0020375146067847,-0.0051829324550554,-0.0059557193447375,-0.003333488616489,0.0018942625732988,0.0073533781930623,0.0101739981661709,0.0084467074365937,0.0023318573971368,-0.0057785137844697,-0.0122194990876067,-0.0137512526253682,-0.0092012439363223,-0.0002066033980729,0.0094005229646876,0.0153376982981021,0.0148920039717857,0.0081865831389019,-0.0019172405251706,-0.0111629540807459,-0.0157841003541877,-0.0140675434454669,-0.0069647480907095,0.0024354691072873,0.012774264987759,0.0135096195726517,0.0111187721234267,0.0069520844502718,-0.0034972964828902,-0.0095434288899445,-0.0116566248448602,-0.0095914729314643,-0.0046397440116922,0.0012011578881937,0.0060840295018393,0.0087803002272419,0.0087501973018607,0.0060670075057748,0.0014021583323782,-0.0039584104663508,-0.0082727477250455,-0.0098338225626646,-0.0077027247004119,-0.0023295349635451,0.0043616160006653,0.0096239006547377,0.011066160624459,0.0078067131768201,0.001005220535911,-0.0065367830364462,-0.0115578381114481,-0.0092904972101255,-0.0070430916701223,0.0006558318967196,0.007981051600712,0.0118044234344192,0.0105241459598353,0.0047039309131015,-0.0031805729160965,-0.0097663540198046,-0.0122044355824987,-0.0093883355319799,-0.0024840087361259,0.0055129599982024,0.0110585214593305,0.0116509007326742,0.0070100934677264,0.001740348297448,,,
0.0125152094428596,0.0083918547416851,0.000346666100167,-0.0084851548892664,-0.0143158276241685,-0.0144179363504061,-0.0084601157757161,0.0012094397262726,0.0105215438136746,0.0154861533896532,0.0164810872092895,0.0066422259855999,-0.0035028709310598,-0.0123605986203618,-0.0164338252625035,-0.0141455976978589,-0.0063522644128392,0.0040312660275991,0.0130815050697456,0.0172562706299349,0.0147198252359034,0.006160682253997,-0.0052713469649146,-0.0150287487840978,-0.0189475976123895,-0.0150769893580618,-0.0047279542630603,0.0078690271846615,0.0173154143450827,0.0194812810580137,0.0134418087927777,0.0019084098940129,-0.0100720645485276,-0.0174689402483695,-0.0174847319633882,-0.0105969703539409,-5.2216704755065256e-05,0.0097679326053037,0.0152200777202867,0.0146850950356903,0.0088808834851711,0.0002986340703039,-0.0078561714524673,-0.0127888712639761,-0.0129731963229907,-0.0085473641924159,-0.0011938435411386,0.006430347239047,0.0115601061779005,0.0122744264333771,0.0082563855668905,0.00103566342991,-0.0065114168251865,-0.0113092380596164,-0.0113995588295681,-0.0067980750739058,0.000518422603198,0.0074653935473334,0.0111419658746048,0.0100194269828192,0.0045724746969216,-0.002882247767963,-0.0091037797863876,-0.0112883564241882,-0.0083428849253877,-0.0014816817689117,0.0062208051165682,0.0112030369142615,0.0110873627494661,0.0058228135062236,-0.0022656518960495,-0.0095337449741952,-0.0126696610199097,-0.0101818968538813,-0.0030656552495493,0.0056266820154111,0.0121019297953493,0.0134580135505096,0.0089571652668967,0.0004129550503576,-0.0085151372576767,-0.013892266354795,-0.0132891419286957,-0.0069333845242811,0.0023617818124222,0.010488694394793,0.0139400932838256,0.0113936313048124,0.0042316581374775,-0.0042238247949283,-0.0103355978523529,-0.011794798326563,-0.0084929091290714,-0.0022988045412074,0.0040038146157595,0.008009379906608,0.0086090541414458,0.0061988401079913,0.0022004607708543,-0.0017698789462619,-0.0046034011772768,-0.0059136898136852,-0.0057709313942545,-0.004313992929358,-0.0016406971320478,0.0019344678202173,0.0055529979343141,0.0078368000607671,0.007439084973954,0.0038730833709986,-0.0019088434808796,-0.0076437940601779,-0.0106722593318962,-0.0092462328056017,-0.0035530378404245,0.0041466132646843,0.0104360939823836,0.012324385620313,0.0087263795125077,0.0010938235878741,-0.0071615470908476,-0.0122351492378424,-0.0117611864912932,-0.0059941108316018,0.0022981158001978,0.0092132202499611,0.0116561974864481,0.0088102432273899,0.0023755295969075,-0.0044691992087773,-0.0087221467642002,-0.0089153024908807,-0.0055477597809307,-0.0005413743488029,0.0063305500101062,0.005926353040057,0.0052687453049993,0.0025629280882896,-0.0007521672158182,-0.0032152350613044,-0.0039721822091064,-0.0030496701093766,-0.0011883145299693,0.0006301504324043,0.0016770670413897,0.0017446586889037,0.0011198486432511,0.0003503588277116,-6.874480379284891e-05,3.4520383019253e-05,0.0004082386361766,0.0005341874840298,-2.2638558699118622e-06,-0.0011450165320915,-0.0022758457064219,-0.002530209834192,-0.0013747472487733,0.0009225968720194,0.0032872983471183,0.0043785198546761,0.0033831942456482,0.0005695200114173,-0.0027687114132046,-0.0049718021263409,-0.004903739818485,-0.0025637650343093,0.0009198555319634,0.0038951748172461,0.0050372579706044,0.0039714088071888,0.0013554761569366,-0.0015591753127114,-0.0035776613072657,-0.004051233323139,-0.0030144175519375,-0.0010209284479648,0.0011491364460308,0.0027671751014274,0.0033535343954963,0.0027783337852247,0.0012701597134448,-0.0006546203790862,-0.0023334261275627,-0.0031615863872833,-0.0028181812961181,-0.0014215402587668,0.0004865200418039,0.002155822598709,0.0029525007261877,0.0026279452683207,0.001395429832509,-0.0002091823268136,-0.0015904723149892,-0.0023390586949325,-0.0023472041083057,-0.0017610047802316,-0.0008295869617727,0.0002309079786919,0.0012690661683525,0.0021341685388199,0.005082129615669,0.0022257287870347,0.0031216138307863,-0.0025105907376466,-0.00706041850395,-0.009893145382405,-0.0027612112804655,0.0032046525948896,0.0081703042362814,0.0067004197208682,0.0025735076896061,0.0002627336735711,-0.0022412956998705,-0.0037131628758956,-0.0030637341255094,-0.0049577533031891,-0.0032681622934227,0.0007498596012642,0.006017483349645,0.0047389103773322,0.0046462078205302,0.0009360121569039,-0.004689203864129,-0.0082698337883599,-0.0009086633744111,0.008355344408215,0.0049961930881887,-0.0030555021558164,-0.0078124221934333,-0.0076470048606529,-0.0008024903278053,0.0045784672315947,0.0088596101038464,0.0099321859318529,0.0058738437111088,-0.0044548661687467,-0.0066275588700015,-0.0126255611808608,-0.0115070676900161,-0.0032694458474127,0.0061306402518156,0.0116834057220171,0.014148093046264,0.0122958778440237,0.0010339692554597,-0.0106098313871809,-0.0186532446569934,-0.014153544930676,-0.0052490398804665,0.0049747517288389,0.0124982858956753,0.0174134824714699,0.0123410116890228,-0.0002785686606904,-0.0118636958288806,-0.0165619824782668,-0.0079383038895205,-0.0015723050794214,0.004453497634311,0.0082341241860473,0.0067962146478773,0.0044584625640027,0.0032626842097097,-0.0057231001989799,-0.0072685522460358,-0.0054485726497657,-0.0009647792410076,0.0064042378969805,0.0029226396808464,0.002254316586065,-0.0022555252378879,-0.0040913394036251,-0.0018592113608434,0.0021880340292683,-0.0001777228583188,0.0014703551280669,0.0058867867537957,0.0058594623353803,-0.0018083948595413,-0.0080571398984778,-0.0113370127308502,-0.0040882723471356,0.0028084637743627,0.0070208638411143,0.0082643316654014,0.0075204455464989,0.0025301137339537,-0.0020369007290346,-0.0079017679683219,-0.009556966627413,-0.0056447491491563,-0.0021405478169892,0.0026436477403265,0.0048182330594756,0.0091856761446663,0.0107499310222,0.002136303818482,-0.0057336724568139,-0.010348906146319,-0.0082707423889567,-0.0032354571343844,0.0022240639526685,0.0056297089610615,0.0057839786071636,0.0032377904953301,-0.0002045336785725,-0.0026045530117599,-0.0029529440910688,-0.0015659744552534,0.0003439212032955,0.0015498008611337,0.001524327464301,0.0005630831959027,-0.0006358318038184,-0.0015094439276453,-0.0018556538257635,-0.00166919280539,-0.0008909280532831,0.0005689232875688,0.0024995668718461,0.0041163030372472,0.0042741654464583,0.0022082992014387,-0.0016842801191999,-0.0056922943762204,-0.0075712143344455,-0.0058810865442264,-0.0010219951331464,0.0047801494466196,0.008617993632898,0.0085037120192521,0.0044526422876455,-0.0015709698741243,-0.0067391074122194,-0.0087872941125839,-0.0070091912677207,-0.0024054673849543,0.0029337368423622,0.0068066267346513,0.0077754093272069,0.0056274600731136,0.0013348211244386,-0.0033876937795129,-0.0067270686576967,-0.0074045940761183,-0.0051173181231994,-0.0006708262324849,0.0042454328773042,0.0076186464741895,0.0078908065163617,0.0046945865282695,-0.0008195926592838,-0.0063408155891183,-0.0093779393268901,-0.0059399961876767,-0.0038391074935822,0.002370519717846,0.0073706522853963,0.0089447534651249,0.0065122551434194,0.0013498546872796,-0.0040887468848971,-0.0074002175302994,-0.0073614149068314,-0.0043853362752594,-0.0001226286522333,0.0034879220919962,0.0051471543440975,0.004633221514193,0.0051245496039686,0.0001340535097314,-0.0020085420260989,-0.0033395395521612,-0.0037045939596887,-0.0031654140582782,-0.0019347498231802,-0.0003297059729202,0.0012800202942972,0.0025439327501523,0.0032051868092448,0.0031389907908676,0.0023372044934156,0.0008783489519135,-0.0010507326745573,-0.0030756120994477,-0.0045951911685377,-0.0049105429612945,-0.0035444691598078,-0.0006011032595525,0.0055604505966451,0.0059969514340898,0.0067456967251322,0.0045932828279993,9.082985483581128e-05,-0.0050387266630093,-0.0085878869251074,-0.0063657568432437,-0.0055685588470117,-1.117302097768702e-05,0.0054776806718236,0.008630098176066,0.0082027238844736,0.0044454336690767,-0.0010457492812562,-0.0059929651284857,-0.0083662308204775,-0.0072351276087697,-0.0031761073647015,0.0019921510932853,0.0060495117770145,0.0073706775437169,0.0055833609153006,0.0016235886305814,-0.0027478690880331,-0.0057016802414393,-0.0060728893427968,-0.003822861300107,-4.9413512323625034e-05,0.0035029789013262,0.0052522619780329,0.0045181814369022,0.0018014851312839,-0.0015348485073087,-0.0039774803592357,-0.0045617560379169,-0.0007334307623014,-0.0007875281707779,0.0015608297027172,0.0027897910508973,0.0025322460271895,0.0011553704578472,-0.0005140268204124,-0.0016444311947937,-0.0018027229514365,-0.0011069045328351,-7.652785634080364e-05,0.0007021046519339,0.0008937497722235,0.0005498683336136,1.3851596590899773e-05,-0.0003273874183722,-0.0002912032180327,5.62754510616957e-06,0.0002651049552447,0.0002556916473639,1.967080712287051e-06,-0.0002392844279235,-0.0002080508438946,0.000107513183958,0.0004183863314286,0.0003548160665462,-0.0001981780759644,-0.0009311272365107,-0.0012783930351207,-0.0008271825061594,0.0003366206009044,0.0016165797642551,0.0022518602580001,0.0017872024383986,0.0003589713272006,-0.0013693649534749,-0.0025641728187548,-0.0026567559850387,-0.0016204695972537,4.809351700720336e-05,0.0016142770463874,0.0024768234047997,0.0024124915439001,0.0015891079633626,0.0003962458546675,-0.0007741059849296,-0.001674615243584,-0.0022141573217053,-0.0023528329608874,-0.0019866689590125,-0.0009575126605521,0.0007641060819503,0.0028383979358517,0.0044787430238587,0.0046998150587372,0.0028479222467643,-0.0008572160105624,-0.0051339043046198,-0.0080360396121929,-0.0078457209881307,-0.0015563445225004,0.002084713084817,0.0079105347351541,0.0105456262548438,0.0083935894206738,0.0020956840481392,-0.0055883452113405,-0.0110327764682832,-0.0115698121437303,-0.0069027384114703,0.0007227821641482,0.0077090121483243,0.0109630077973511,0.0093689021379003,0.0041277630687296,-0.0020891954063858,-0.0065958763757338,-0.0079286038135007,-0.0062587021364761,-0.0029097081135873,0.0005700203996293,0.003152607018365,0.0045208752905588,0.004780713832905,0.0040732391112141,0.0024337241910514,-3.2113972331070466e-05,-0.0028688782416389,-0.0051959202782727,-0.0059936062987489,-0.0046352016788107,,,,
-0.010187330594972,-0.003978615540339,0.0044825613528051,0.0117974844982652,0.0146948266410787,0.0115335384069278,0.0032288542680362,-0.0069246259677016,-0.0145927913816572,-0.0163563403814562,-0.011324362273078,-0.0015699726298192,0.0113044689596684,0.01544980319563,0.0156023934179174,0.009241852229376,-0.0009277343551041,-0.0106713727350924,-0.0160275972920448,-0.014925471895226,-0.0079473805764873,0.0020230909659858,0.0110342094553918,0.0156204280327677,0.014083366309719,0.007084871153196,-0.0026167065154733,-0.0112081157751441,-0.0153024071670741,-0.0133053231577203,-0.006084526430037,0.0033860272910635,0.0112789922495929,0.014511742579805,0.011979042280368,0.0049044333510845,-0.0037755763423835,-0.0106587905844997,-0.0132077699104647,-0.0106558847391867,-0.0041933605889488,0.0035847845958,0.0097238729581826,0.0120274858597803,0.0098150721078089,0.0040603355267899,-0.0030679497211098,-0.0090105106817546,-0.0116540239162532,-0.0099797238733097,-0.0044216397931055,0.003141386126143,0.0098607866732729,0.0128835460453312,0.0105766627816353,0.0034860104176815,-0.0055693178672461,-0.0125513333150013,-0.0140732918979815,-0.0091790869043873,-9.633758304309637e-06,0.0091397163911749,0.0164273185313121,0.0120860838408564,0.0044856284105947,-0.005305765332409,-0.0127244288964301,-0.0143581532736279,-0.0070190697475556,-0.0005576506063012,0.008247968422759,0.0127667862083245,0.0110251957709942,0.0041290624076311,-0.0043557459776754,-0.0102592544223528,-0.010935628611995,-0.0065124453418691,0.0028756026607076,0.0061161667318277,0.0080367423557199,0.0056955349924582,0.0008596246342059,-0.003716639021757,-0.005864890200994,-0.0049900792831755,-0.0020318496245573,0.0038338283368476,0.0035845439576851,0.0038839683620162,0.0022290287459504,-0.000660031399848,-0.003582693658633,-0.0051988873497998,-0.004518981639019,-0.0014554567721034,0.0028903561028265,0.006535891993316,0.0075210274582083,0.0049794912026426,-0.000247797657531,-0.0058817973584016,-0.0092823001021023,-0.0087642229153789,-0.0044273433375465,0.0019231079251652,0.0076448292661763,0.010409556769009,0.0091121002400651,0.0042416168385218,-0.0023389363397605,-0.0080986871165903,-0.010799791235519,-0.0093770197222805,-0.0043811293401201,0.0022274734082116,0.0078741355644652,0.0104194796662081,0.0090059357131298,0.0043430987546149,-0.0016608072819447,-0.0067202931077813,-0.0090688359238865,-0.0080669040964244,-0.0043283132036837,0.0006157526172616,0.0049389283492013,0.0071877126078208,0.0067695178786255,0.0041025173230041,0.0003798562433224,-0.0029550700911074,-0.0047980235125037,-0.0047803759945183,-0.0033079427169437,-0.0012502366783315,0.0005430640053602,0.0016358105643953,0.0020993245814016,0.0022786587062831,0.0024100008061273,0.002362793808502,0.0017043744311621,0.0025600035735863,-0.0024749552372786,-0.0051235349253265,-0.0065961255572297,-0.0057095085755625,-0.0021863315646305,0.0029103465226144,0.0074831154891034,0.0093612449708084,0.0074141925406963,0.0021990139664158,-0.0042189977223616,-0.0091756717163383,-0.0105776380135247,-0.0077790763377069,-0.0018191285554521,0.0050060180202726,0.010019532759474,0.0111706556060231,0.0078469127702289,0.0012084627445773,-0.0061373552700438,-0.0111046430478172,-0.0114405639757029,-0.0068269347934189,0.0008145667345274,0.0080899065917847,0.0116929243919686,0.0099993914383889,0.0038665779038654,-0.0037823421751805,-0.0093761122069662,-0.0104058457060078,-0.006595094898251,2.6861754605863804e-05,0.0061702539305284,0.0089235450683543,0.0071676166696226,0.0020647596359925,-0.0036066642071971,-0.0069188322888016,-0.0063102351052261,-0.0023811943035043,0.0024266641788445,0.0050933655577651,0.0060682425464905,0.0003220506172189,-0.0026541496476489,-0.0020435775234947,-0.0045684105510925,-0.0017660946512756,0.0002246790013966,0.0032435927427264,0.00387823340246,0.0049419379275104,0.001779396369935,-0.0032690412457786,-0.0071041576532259,-0.007558093054119,-0.0020199469222872,0.0025998993679654,0.0084166302242435,0.0085373167598093,0.0050348579132997,-0.0029919268088969,-0.0082614017238932,-0.0085606738812909,-0.005335937162695,0.000280981131871,0.0086235200766053,0.007270464222287,0.0045819986698621,-0.0016147104421938,-0.0041904956930557,-0.0024266476990678,-0.0038665518800033,-0.005719365917618,0.0023522500636436,0.0052699513842545,0.0050923913160355,0.00336622715326,-0.0013661562458371,-0.0040219950166859,-0.0044306520904793,-0.0033671942362915,0.0010786682947577,0.0017685060425471,0.0032519090610719,0.0009070808368613,0.0020684430509364,0.0035876960948685,0.0006729310273077,-0.0041849432714916,-0.0077534575952319,-0.0056923999078783,0.0004965486935956,0.0039287846092717,0.0052520543839281,0.0088963872401186,0.0053956078571653,-0.0036879193683705,-0.0071046677099331,-0.008711505786298,-0.005618428045165,0.0014499003328553,0.0034849165660428,0.0063004114799904,0.0063118915384347,0.0035795339319273,-0.0006794229861537,-0.0045915572181904,-0.0064287538408389,-0.0053924254733861,-0.0020375251923748,0.001906264311906,0.0043386618757602,0.0087873604237558,0.0055650226810487,-0.0012713416731926,-0.0071723673893377,-0.007677632100406,-0.0047872385692106,0.0002678902668698,0.0050639874337088,0.0072180538258419,0.0056473893102841,0.0011635511685131,-0.0039138311465559,-0.0069320400300116,-0.0062864197745026,-0.0022961399006972,0.0029265248289836,0.0065964017282018,0.0067662042105171,0.0033676369426347,-0.0017997737310072,-0.0060746866252431,-0.0073179624920422,-0.0049272195427958,-3.892894475880713e-05,0.0050626389999532,0.0079834706489389,0.0072631352797259,0.0030374756926535,-0.002941429486123,-0.0079935144070253,-0.0096872979296464,-0.0070040682507561,-0.000909050758012,0.00600129204111,0.010636472365939,0.0107974406753992,0.006177241331949,-0.0014524020574727,-0.008939163695324,-0.0105663509481808,-0.0119692428312285,-0.0059885536745241,0.00247830387402,0.0100076138003955,0.0135641053110047,0.0117293116831767,0.0052546541383427,-0.0032797400838085,-0.0105408266856905,-0.0137866654443173,-0.0119035450172264,-0.0057165669846296,0.0024782918235093,0.0098385126287762,0.0139044621377576,0.013260090967691,0.0079060629607368,-0.0006226188763468,-0.00950856720103,-0.015439218046994,-0.0158455099447035,-0.0101117448427294,-0.0001017795021061,0.0103982407583962,0.0171753415166509,0.0173799316897372,0.0107900412680186,-4.6004009022805386e-05,-0.0108648126046491,-0.0174561385904647,-0.0173485689742088,-0.0107128563295121,-0.0001883807233188,0.010203274366891,0.0165904784407852,0.0166706411264082,0.0105348099323969,0.0006132340700995,-0.0092566031402441,-0.015315803413523,-0.015356118972252,-0.0095787341312584,-0.0004708957662048,0.0082600205812331,0.0132443661940764,0.012820854910308,0.007617131154783,0.0001077072320465,-0.0065911059507523,-0.0100761331295096,-0.0095298343473091,-0.0057887215258343,-0.00071536311901,0.0062023983654715,0.0060694163730141,0.0059289280271823,0.0037567583274122,0.0006386068474018,-0.0022271920784099,-0.0039481090188865,-0.0041329565735429,-0.0028942175714654,-0.0007597924539403,0.0014540277126065,0.0028556188660003,0.0028233450779058,0.0013748523858155,-0.0007069064704199,-0.0022020703220223,-0.0021470604295327,-0.0004865928364805,0.0017772166319193,0.0031177134638285,0.0024300720416582,-0.0001906712950782,-0.0033705329484139,-0.0051922527881426,-0.0043371472630801,0.0015396486240455,0.003235891806839,0.0058796935741401,0.0053342644539339,0.0017403179775797,-0.0030043155848183,-0.0063189648080087,-0.006420548992192,-0.003329073505003,0.0011954207247417,0.0072030675276282,0.0054137856964337,0.0031344225583158,-0.0007060920496159,-0.0039178853904497,-0.0048102898844445,-0.0030925081835364,7.48935617790347e-05,0.0028327460103636,0.0036973655668689,0.0023464341667247,-0.0002780805901113,-0.002554635449647,-0.0031119845392149,-0.0016077292862948,0.0010563803040108,0.003218676042718,0.0034189647718743,0.0013207945472407,-0.001975093821259,-0.0044950443009299,-0.0045601619901301,-0.0018529898216482,0.0022990872672375,0.0056214504815767,0.0061625270852278,0.003403394478928,-0.0014049853212352,-0.0058484126409754,-0.0075810146876836,-0.0055560428588928,-0.0006268638013183,0.0048151503697634,0.0080250361475048,0.0073290540932554,0.0030331804590466,-0.00270864673873,-0.0070255199424853,-0.0078387351794737,-0.004907876176743,0.0001409217714189,0.0047615636077346,0.0068345317148002,0.0056689996514805,0.0021697482698903,-0.0018200756378163,-0.0045402678398587,-0.0051039837964078,-0.0036987913880774,-0.001247044796755,0.0011522230050769,0.0026845985796557,0.0055236930355512,0.0047536962570818,0.0006620256717876,-0.0013554206053352,-0.0032594112110271,-0.0044053469201875,-0.0042411956808561,-0.0025708747864008,0.000259284856683,0.0033703778295892,0.0055989585256204,0.0059200708047399,0.0039030870453855,1.8639690105216972e-05,-0.0043789906136277,-0.0074835564468315,-0.0077850298569484,-0.0048205295570229,0.0004714687632267,0.0060345570803747,0.0095238815362086,0.0093051505102954,0.0051843190301382,-0.0014237306470818,-0.0079555743034232,-0.0116510198776522,-0.0106862716874503,-0.0050594799797666,0.0031920143477939,0.0106583165085812,0.0139493924570348,0.0112659409995331,0.0034085454163834,-0.006357079535645,-0.0136595018754164,-0.0150503152022315,-0.0097189554723782,1.666005275410757e-05,0.0097555948238163,0.0150982435508394,0.0137201355363368,0.0064039447142452,-0.0034380949778649,-0.011438171933596,-0.0142651616805179,-0.0109932954505615,-0.0033118657272773,0.0053727741715537,0.0114419658977858,0.0125190020476171,0.0083344028364581,0.000747153734384,-0.0045436739399458,-0.0118151199901017,-0.0116392915109697,-0.0066617877791044,0.0009369254728621,0.0078222968042109,0.0109722232335447,0.0090977384764126,0.003272367048377,-0.0036155927100022,-0.0083281327774165,-0.0088740777776338,-0.0053896865797477,0.0001119297698174,0.0048988755545778,0.0069018354037229,0.005594612176572,0.0020097432487192,-0.0019683496058611,-0.0045574422041397,-0.0048057614512231,-0.0028594069067649,0.0002187291920351,0.0029427449159783,0.0040397343803966,0.0030215766023816,0.0004468783254737,-0.0023141192788586,-0.0037716807981936
0.0003128707009986,-0.0064446115781695,-0.0105257376587807,-0.0099812236371975,-0.0049022685538792,0.0025634982706273,0.0091228486898328,0.011795079552217,0.009276066544591,0.0025817746061111,-0.0053549824848623,-0.0109922067816458,-0.0118084087439587,-0.0074768443850883,2.1390441694023523e-06,0.0072763337436216,0.0112195798486099,0.0103218751444002,0.0052476357601121,-0.0016265972192115,-0.007385675751416,-0.0098523179300703,-0.0083833368228341,-0.0039128878081568,0.0016319695327414,0.0061699121519074,0.0081901491519711,0.0071669128776063,0.0036353326682586,-0.0010301193908547,-0.005083432778582,-0.0070267727958664,-0.0061925375112048,-0.0030363994620771,0.0010393060587742,0.0043014207427513,0.0054684725530869,0.0042736142337839,0.0015266095285515,-0.0013418462721565,-0.0030079562140136,-0.0028886685192732,-0.0013757029605116,0.0004378583075434,0.0013946728387407,0.0009365252320054,-0.0005714995984566,-0.0020475817354515,-0.0023292231107591,-0.000889762546725,0.0017735947636201,0.0043212268657494,0.0052509588828153,0.0037191458079031,5.461615811259236e-05,-0.004316952798631,-0.0074963512590505,-0.0079599174676181,-0.0052357081404655,-0.0001328558115478,0.0080195666045036,0.0094901884327726,0.0099669330548374,0.0063578024675981,-0.0003038782611263,-0.0076089983107738,-0.0126322079118988,-0.0131122838320107,-0.0059973448849377,-0.0003609684026939,0.0081417852564792,0.0136232687112536,0.013914523961071,0.0089060873331611,0.0005048643136221,-0.0081611368744117,-0.0139249205050288,-0.0147104047156657,-0.0102352738704039,-0.0020733506990125,0.0069162826279042,0.013576297501926,0.0155196975015871,0.0119521019615336,0.0040048987289208,-0.0055579816137961,-0.0132539401943836,-0.016180947665273,-0.0132118066468222,-0.0055106884565428,0.0064252139483564,0.0114982185315897,0.0144809874158148,0.012085865435279,0.0056223572589974,-0.0022703343789844,-0.0088156452940308,-0.0121112288057247,-0.0115817337288953,-0.007841326385059,0.000265713019759,0.0036229629124423,0.0106855942802222,0.0102481275777781,0.009178443793195,0.0051339155221235,-0.0008373525967483,-0.0069528796749609,-0.011154999608692,-0.0118016282645075,-0.0083643431838181,-0.0017990316641125,0.0056637504864587,0.0113010505420528,0.0129554812051372,0.0099214715893332,0.003273488058736,-0.0045182255679331,-0.0105424549523874,-0.0125893963927685,-0.0100098970158055,-0.003932660971036,0.0032428918640252,0.0088405924670627,0.0109463200406003,0.009064203919002,0.004173001459421,-0.0017635638699314,-0.006586346713725,-0.0087205527656764,-0.0076775761147884,-0.0041259298505837,0.000459885105711,0.0044055292838065,0.0064444827188838,0.0061025582613193,0.0037579562988219,0.0004142634023451,-0.002694189032077,-0.0045277556767289,-0.0045742964326072,-0.0029936668063339,-0.0005280401425819,0.0017966143029068,0.0030793061122618,0.0029112405573939,0.0015417914222154,-0.0002503104215811,-0.0015388188994638,-0.0017081062238396,-0.0007655818453546,0.0006421957892412,0.0015252049669553,0.001045638182818,0.001490355610285,-0.0040276293766337,-0.0042354336078129,-0.0003317556026933,0.0011080518155343,0.0019271364863708,0.0030651778747701,0.0049769956268923,0.0017644275060684,-0.0011521843574935,-0.0045772171627392,-0.0063703185769326,-0.0051026351718183,-0.0009396620628746,0.0042622966232252,0.0077857858174528,0.0074463899472082,0.0028274588938673,-0.0043311414145412,-0.0083462256041443,-0.0062207980739427,-0.0014894023444727,-0.0001643566510393,0.0043637951478556,0.0060863284510499,0.0057746605213812,0.0039539469952229,-0.0020890594878848,-0.0097419851366937,-0.0074962408717849,-0.0027979189389052,0.0002635850688502,0.0044038176949075,0.0054342865362428,0.0081914216551597,0.0069240530660769,-0.0007501516265561,-0.0080575965523569,-0.0097418164730533,-0.0092982590052693,-0.0040796772680364,0.0014025212408126,0.0127273602422581,0.0175093001953692,0.0024156133206941,-0.0035046777863564,-0.0043735191488928,-0.01239616969417,-0.0096239849603797,-0.0006656218494362,0.0035094445041914,0.0059751359305356,0.0065472056529739,0.0061199301613094,0.0063020477420485,-0.0022815915592356,-0.0078087555092651,-0.0114657722606884,-0.0051471642723483,-0.0026772225948509,0.0064704234419413,0.0093427551349859,0.004877508032808,0.0032759054808666,-0.0012179316706775,-0.0023264806053945,-0.0012873004977777,-0.0047026905753498,-0.0051575046059362,-0.0049150647298807,-0.0014009748489695,0.0030172067257577,0.0080472952175612,0.0076659825011337,0.0034009465012646,-0.0009062615261794,0.0025172761843343,-0.0045135224816198,-0.0104912441364632,-0.0089163798177225,-0.005915413502736,0.0032410176655659,0.0074551372115023,0.0087364770947918,0.0096411112932717,0.0060340568393715,0.0009437391797094,-0.0080613868682495,-0.0103670426610001,-0.0103455069153401,-0.0068629170977743,-0.0033577791109253,0.006611179420305,0.0117575501664317,0.0113665855006482,0.0112864007535995,0.0053540502694523,-0.0082373069371453,-0.0158496537600675,-0.0166301255236581,-0.0091711665638334,0.0007174480466517,0.0100477362033174,0.0148153208158708,0.0142035047770921,0.0076416195952789,-0.0031364318274595,-0.0093143570750402,-0.0146555278292524,-0.0097522230600874,-0.0050192291246113,0.0015835845892585,0.0064212300836664,0.0116780834257126,0.0121919257844054,0.0071078322649706,-0.0033791953867294,-0.0090101436770626,-0.0128756964370575,-0.0097718798537421,-0.0030782337915014,0.0052213540224101,0.0102124258145346,0.0099459556444663,0.0054940017590839,-0.0001713043670402,-0.0048797127752393,-0.0082924504919598,-0.0081944793396671,-0.0042238479936385,0.0018020011080087,0.0067543517918957,0.0078864049557552,0.0093171095578587,0.0028954085430822,-0.0082231243577854,-0.0111860311530865,-0.0093584984395236,-0.0034130356883188,0.0040717055137018,0.0097881271958439,0.0111934992896375,0.0076389957163961,0.0006502775666431,-0.0067525960556499,-0.0113818606874826,-0.0112515137575644,-0.0063933722760287,0.0011932843855218,0.0083906928003437,0.0122392600644016,0.0111326303080199,0.0054686483789963,-0.0024956207249443,-0.0095313518545329,-0.012728059768207,-0.0106909545547592,-0.0041751587486881,0.004131267312299,0.0106700250310116,0.012558841095709,0.0089543837789388,0.0015247760430326,-0.006298571097085,-0.0109647902051417,-0.0104985728473545,-0.0053787992453537,0.0017953776848398,0.0076115244482552,0.0094499530640369,0.006649556791159,0.0007517631174319,-0.0027668078694463,-0.0084539816375862,-0.0073374826673127,-0.0026367282651529,0.0031094456975866,0.0068471843526777,0.0066374590198412,0.0027198458797486,-0.0026390473843174,-0.0064421972566937,-0.00663629813057,-0.0031942353438523,0.0019639921152676,0.0060860322987394,0.0070646216393955,0.004483311043931,-0.0002672759649635,-0.0047915204912673,-0.006937897031509,-0.0058302838661719,-0.0021820701798146,0.002187259827837,0.0052982521798899,0.005907121723977,0.0039539948902234,0.0029324896270874,-0.0031724947264492,-0.0055100160223446,-0.0057602526315592,-0.0038231525586176,-0.0003791033909657,0.0032502771518754,0.0055290359114842,0.005357467402225,0.0026737984187096,-0.0013636897620028,-0.0048265512337234,-0.0059514032811985,-0.0040835245004283,-8.634839659425651e-05,0.0040529284074633,0.0062305665524991,0.0052970436702908,0.0016209670454731,-0.0031089132391688,-0.0042032911030254,-0.0075051101000561,-0.0051149916763889,-0.0004880736245243,0.0045054571035692,0.0077969602529408,0.0079056628276078,0.0045763783656485,-0.0009830726528411,-0.0064610209990143,-0.0093843340261191,-0.0082954693309764,-0.0035658581000785,0.0026720937664476,0.0075400122759969,0.0088729679629052,0.0087937262179655,0.0012656729074557,-0.0038233655869781,-0.0069049196712275,-0.0071132392640669,-0.0049162047007308,-0.0015621656552042,0.0016743091140419,0.0039573813703861,0.0049314668695217,0.0045487080285363,0.0029577184839468,0.0005384423578843,-0.0020508205876101,-0.0039890661091429,-0.0045928675311652,-0.0036376180074912,-0.0014896571095122,0.0010396445494183,0.0030336799902999,0.0038288144642083,0.0032440575519994,0.0016194874805012,-0.0003362247774555,-0.0018509808963218,-0.0024464027801656,-0.002161990478046,0.0010122374498983,-0.0010216179091907,-0.0010243996065122,-0.0011679430460182,-0.0007577259521548,0.0006589575546199,0.0027677638200433,0.0044704871940992,0.0044547944302547,0.0020477171484837,-0.0021617261219094,-0.0063631479138933,-0.0083140964281113,-0.0065296980603154,-0.0012460506359264,0.0054222251961165,0.0103337965400433,0.0108463378511427,0.0062565962289089,-0.0016473594900649,-0.0093028256604472,-0.0130581463010606,-0.0109790219545969,-0.0038414190115119,0.0051961449568715,0.0120636471347365,0.0136593277672228,0.0092503422946444,0.000782043783317,-0.0080039190608672,-0.0132378371883152,-0.012647984225336,-0.0065765165379185,0.0021921631597663,0.0097276068920033,0.0127654904789858,0.0101706768577275,0.0033674074438748,-0.0044277745225992,-0.0097570361143458,-0.010495472804183,-0.0067191354457438,-0.0005056878820429,0.0051761727862016,0.0079094340457513,0.0068936998434328,0.0031444972041354,-0.0012036643364044,-0.0040709471327426,-0.0044511201963507,-0.0027658818112747,-0.0004236323001651,0.0011119322511515,0.0011790503904284,0.0002067704175503,-0.0006958897770391,-0.0005518480106621,0.0007974233145871,0.0025543644430864,0.0034509822867945,0.0025530271304436,-0.0001067536784705,-0.0034402910757041,-0.0058056394500557,-0.0058239295946956,-0.0031063123489858,0.0014471315661434,0.005934310151947,0.0082506557855798,0.0070882262045186,0.0026654042349206,-0.0032288928838317,-0.0079879333297109,-0.0094165857398818,-0.0068123812397792,-0.0013159905881472,0.0046538337776562,0.0085581632919309,0.0088707324128627,0.0056467752584432,0.0003465505800148,-0.004883762412356,-0.008081316246141,-0.0081452133388573,-0.0051521836526608,0.0022014807680521,0.0044782356366179,0.0071870131784447,0.006644164586581,0.0030866914705472,-0.001854458798333,-0.0058625801198806,-0.0070241688472346,-0.004785373992111,-0.0002732683397172,0.0042367604373151,0.0064794581213729,0.0053811019564612,0.0016098865171486,-0.0028167451947187,-0.0056419678986093,-0.0055623000094025,,,,
-0.0007791643029543,0.0045808036822806,0.0080583883883654,0.0082473134661951,0.0052013186830182,0.0003388848746802,-0.0042960299270927,-0.0069859816663901,-0.0069922550015246,-0.0046512038980954,-0.0010297594716719,0.0025618548573162,0.0049889768711152,0.00807432719514,0.0042242402669608,0.001428465667144,-0.0018567132080854,-0.004499794405211,-0.0055946984253211,-0.004771905619778,-0.0023059174753521,0.0009693725975616,0.0038952085592078,0.0053495406168136,0.0046875481660865,0.0021019608528819,-0.0013413191582302,-0.0041307106435112,-0.0050415614016799,-0.0037576625190015,0.0014823558870626,0.0017662660794097,0.0032254019155808,0.0027457392965004,0.0007667454821801,-0.0015013724397269,-0.0027551446678567,-0.0023064811513499,-0.0004521778670459,0.001704328684208,0.0028863197006523,0.0023740802861861,0.0004148993158085,-0.0019173511795156,-0.0033240486970188,-0.0029972274666219,-0.0010531509743155,0.0015342834938176,0.0034408684280811,0.0036654174148218,0.0020368619900349,-0.0006816194747938,-0.0031425794856041,-0.0040669675675205,-0.0029003477512833,-0.0001472750308433,0.0028147720618512,0.0043975107239863,0.0036407522874536,0.0007939711958496,-0.0027120612375867,-0.0049612470459331,-0.0045940873691842,-0.0016243248873985,0.0024743817563562,0.0055194616180695,0.0058103738430196,0.0030792241021526,-0.0013456806027384,-0.0052482955721633,-0.0066921312708185,-0.0049953477611965,-0.0010093782732675,0.0033859320794218,0.0062372747621255,0.006403284793208,0.0039637927351151,4.4038162972600456e-05,-0.0037644244004311,-0.0060656125944418,-0.0061255191809036,-0.0040188554936914,-0.0004962070918587,0.0032958844755101,0.0061231225160118,0.0069632631143713,0.0053125056275223,0.0014621512772953,-0.0034002276238362,-0.007444439161584,-0.0088524393247402,-0.0066682845927205,-0.0014265881602049,0.0048559347762387,0.0094628019711385,0.0102317155871903,0.0066460451250092,0.0001564628077407,-0.0064657208484208,-0.0104075869169593,-0.0100721258406748,-0.005720519992404,0.0007478262357062,0.0067042967091886,0.0099180529782716,0.0093784362330316,0.0055022561035975,-0.0002320649253358,-0.0059106990389571,-0.0097411247986083,-0.0079426278566384,-0.0075781670788705,-0.0018218349065727,0.0050285412613294,0.0104521874897557,0.0120584983556897,0.0086938916083447,0.0012698352522491,-0.0072843547777337,-0.0131579904729504,-0.0134591689023035,-0.0077539128677137,0.001553238035024,0.0102867706877845,0.014488103615355,0.0122941435813017,0.0047718337734531,-0.004649479217506,-0.0118059959730534,-0.0136772001653111,-0.0096557351923313,-0.0016960393391242,0.0066436959120606,0.01179371484099,0.0117027722674891,0.0066635605298355,-0.0009071232063188,-0.00761778009363,-0.0106416801017805,-0.0089324579339399,-0.003575336771462,0.0028385697490491,0.0074663663576506,0.0084805761554536,0.0057803966046895,0.0008843814530712,-0.0038717581013621,-0.0064247480790237,-0.0058686194120101,-0.0027642404699496,0.0012288297510304,0.004195376690805,0.0048689020425533,0.0031689630727645,0.0001387538473518,-0.0026439581722803,-0.0038596370652666,-0.0030513920141117,-0.0007727427676785,0.0017535742967181,0.0032670759656795,0.0030719249619261,0.0013318639898622,-0.0010516982438908,-0.0028906337860199,-0.0032735947054826,-0.0019998453375623,0.0003041721571895,0.0024631522424666,0.0033398509272621,0.0024580319093069,0.0002995808174709,-0.0019452683623609,-0.0030562659023618,-0.002475972099186,-0.0005955126501048,0.001507448851632,0.0026845316718964,0.0023288845786488,0.000674960781687,-0.00134808084184,-0.0026252135131642,-0.002455510965634,-0.0009163568155905,0.0011996719460986,0.0028150567973661,0.0031078304497062,0.0018845943587638,-0.0003587869158348,-0.0026658448261626,-0.0040116660754983,-0.0037104095258464,-0.0017093865400345,0.0013280825583636,0.0042051649227545,0.0056222531240282,0.0047353554225561,0.0016195007173081,-0.0026113565702451,-0.0061675653827211,-0.0073471978549152,-0.0053802363560824,-0.0009169364090573,0.0041647274554446,0.0076149666393994,0.007910374489105,0.0049863331926513,0.0001963611803878,-0.0044338241167077,-0.0071775683910693,-0.0072605425883042,-0.0049440095611009,-0.0011773821798988,0.0028432095648852,0.005974206616821,0.0072928615246233,0.0062811454875465,0.0030732273735256,-0.0013942880945342,-0.0055647614088568,-0.0078330655363012,-0.0072622770008036,-0.0040430585725444,0.0005782182195643,0.0048598579752318,0.0072996924460008,0.0071760607875613,0.0046930872972682,0.0007745191774765,-0.0033014848639125,-0.0062622992043871,-0.0071528012854021,-0.0056161181239813,-0.0020928744589617,0.0022075127203512,0.0056804340291734,0.006969241867348,0.0055863402320085,0.0021678595974631,-0.0018082323660712,-0.0047145893426772,-0.0055170441615522,-0.0041805653394774,-0.0015566261938163,0.0011270968222288,0.0028570950481703,0.0032080892331016,0.0023837968588812,0.0009949632152183,-0.0002678708433201,-0.0009272341536594,-0.0008906130855474,-0.0004499768922717,-9.58892270475748e-05,-0.0002149130084458,-0.0008299258322812,-0.0015496473160366,-0.0017792337815385,-0.0010817108769609,0.0005171567398757,0.0024605003749126,0.0038768517204276,0.0039755153003571,0.0024304678864633,-0.0004167455376934,-0.0036191662951217,-0.0059385929745746,-0.0063100631501804,-0.0042906685532229,-0.0003174162037585,0.004345195288086,0.0079873649475336,0.0090655725715743,0.0068305244327359,0.0017072000287273,-0.0047699845510135,-0.0104803713915035,-0.0110232076211851,-0.012990834801685,-0.0044307055473049,0.0080260925980306,0.0172426341083874,0.0134805618389425,0.0125957780456562,0.0051544732769232,-0.0066844255781247,-0.0199438101624216,-0.0230547243859277,-0.0153883807123173,0.003853538386858,0.009782611972009,0.0211936428444816,0.0192558825199029,0.0120486086731238,0.0031274171780854,-0.0129681661417059,-0.0203556014932836,-0.0227880318358432,-0.0144322130371882,0.0014895430542927,0.0160314621512035,0.0236881951039607,0.0186282667615258,0.0094246012917364,-0.0032999588370043,-0.0186677465715794,-0.0217105671207149,-0.0140531011975758,0.0008685309751776,0.0085813802754034,0.0108775838102442,0.0099555525783822,0.0046304738483772,-0.000209631997759,-0.0008147387280517,3.109854949787599e-05,-0.0027384753145638,-0.0048761094614338,-0.010404110444688,-0.0048424556922304,-0.0038521876859696,0.0029245358664632,0.0112720101031721,0.0147374594729834,0.0075154034082443,-0.0002091425900025,-0.009337792865931,-0.0099621331926522,-0.0068065160285694,-0.0084642019374437,-0.0010714755065228,0.005666465206445,0.0088377954196816,0.0089662699516573,0.0051706626853807,0.0007530054595925,-0.0004744768009451,-0.0066028549326959,-0.0095194796215372,-0.0064888262876859,-0.0026406624841628,0.001485634992175,0.0051107352981316,0.0073263652985044,0.0073274079727244,0.004770376590641,0.0001368074354828,-0.0051426664512142,-0.0090268655596974,-0.0071896631378411,-0.0065186330960211,-0.000650955560193,0.0079204444724116,0.0114689062400007,0.0082936277014445,0.0035779184564984,-0.0030919437352811,-0.0086642147879031,-0.0105614818734519,-0.0078753035439463,-0.0017537672551241,0.0051515584807928,0.0098780037593481,0.0104249838869086,0.0065675248288392,-8.933333419793047e-05,-0.0067921315361709,-0.0107627044641579,-0.0103228329741003,-0.0055816531927153,0.0015912485680522,0.0083026323291599,0.0117880682122613,0.0105230111711784,0.0048630426414839,-0.0030348581779896,-0.0100034354563677,-0.0131047586615162,-0.010860520897868,-0.0039641910376053,0.0048789128468808,0.0119959091061185,0.0142887473236891,0.0106189798264852,0.0023889643122934,-0.0069975908456771,-0.013588829492398,-0.0145945469347274,-0.0095755315200022,-0.0006023189582906,0.0086414405788749,0.014387170978293,0.0142976111008418,0.0083882224533081,-0.0009719454869015,-0.0099800111764568,-0.0149230193332012,-0.0137300436385116,-0.0068870845654851,0.002737514695095,0.0111205401678704,0.0148169891768068,0.0124136292195757,0.0050673895336056,-0.00407394362307,-0.0112720823100149,-0.013776319061021,-0.010886327394466,-0.004073403918844,0.0038129592374656,0.0122925540603853,0.0118409615274947,0.0094549101265126,0.0036569028209609,-0.0034651925804714,-0.0094636211997758,-0.0122318184439104,-0.0106032168152187,-0.0048138391356622,0.0033218051990837,0.0107717257962565,0.0143076148646076,0.0119325293994343,0.0040673402461437,-0.0062353036118027,-0.0143965785548651,-0.0163894849906783,-0.0108214987724659,0.0001048693221407,0.0114045947453403,0.0176248952442098,0.015538939395267,0.0083177491305421,-0.007208036180376,-0.0150507472394421,-0.0203398053246418,-0.0140860074942875,-0.0014029401964788,0.0121173403425463,0.0203705202840773,0.0195045224240257,0.0097513054581733,-0.0045738536220547,-0.0169957757873925,-0.021878805502444,-0.0170613903419444,-0.0048166966740639,0.0093126568780503,0.0191536909994899,0.0206690133504293,0.0135700861628734,0.0011786946365632,-0.0112145836614761,-0.0186476884949973,-0.0184447603267622,-0.0111035288598511,0.0001260609605333,0.0107007050892313,0.0191185269633688,0.0158645310554039,0.0090018620537172,-0.0011665470057496,-0.0107082942128632,-0.0135625396698907,-0.0153829117001204,-0.0091772219364619,2.2419821104932165e-05,0.0087352660548155,0.013853603955846,0.0137257566875068,0.0086468218503683,0.0006448054561328,-0.0072998218698442,-0.0123207295678972,-0.0126821372234576,-0.0084030392218722,-0.0012309859933617,0.0060640953124951,0.0107949066013908,0.0113783609156164,0.0078508838578129,0.0017273413942054,-0.0046574184172461,-0.0090304627441368,-0.0099719038396376,-0.0073571415841974,-0.0023143170558841,0.0032560562048036,0.0073879112578221,0.0087193187020064,0.0069204696315265,0.0027700759237773,-0.0021415488027299,-0.0060044926176021,-0.0074786770871009,-0.006200787046119,-0.0028709896177393,0.0011236861866014,0.0043415975330633,0.0058350483567381,0.00537050018374,0.0033199184337721,0.0004102683305079,-0.0024937697655354,-0.0045507436882342,-0.005125181490264,-0.004011383697325,-0.0015829242143029,0.0012869201223585,0.0035642901705876,0.0044956205694002,0.0039057333191329,0.0021969922302431,8.10958769441917e-05,-0.0017768730774576,-0.0029990059258455,-0.0035121843225624,,,
0.0057961158582646,0.0014476178136989,-0.0035789344890937,-0.0069198913590978,-0.0069830738587024,-0.0037258592829923,0.0012823804082654,0.0055972460949854,0.0071075742889444,0.005107216660943,0.0006610525313947,-0.0039443809005136,-0.006386730489871,-0.0055041415879048,-0.0018670276492951,0.0025667862934999,0.0055029541023184,0.0054890883670225,0.0026122696553931,-0.0016028939494046,-0.0049968054731136,-0.0058547299660679,-0.0037406513568263,0.0003006497975408,0.0042606518936493,0.0086317343659497,0.0048303548683919,0.0007049228786938,-0.0020498046624369,-0.0085997851040606,-0.0070011566349691,-0.006566322772826,-0.0007156440049365,0.0058333696074937,0.0104096170067311,0.0109265350056745,0.006753953833303,-0.0008873678238878,-0.0067077939021907,-0.0148044553652335,-0.0149806649990078,-0.0089381485889992,0.0015955013075169,0.0126732305562012,0.0195143409779414,0.0185772680061243,0.0094113436156015,-0.0047153317510115,-0.0179319789547532,-0.0242724991486748,-0.0204504127822982,-0.007563617115221,0.0091478198732726,0.0224779319710873,0.0264551455470647,0.0191330562065057,0.0036211638430867,-0.0132578295146518,-0.0241357647226229,-0.0245308599225586,-0.0147884685997984,0.0003834117901036,0.0143526925815552,0.0215848830552217,0.0198015893722182,0.010502606084115,-0.0020711907745285,-0.0128651258067011,-0.0154915668708602,-0.0160728223534084,-0.0085040529448403,0.0013810792316817,0.0097558874103076,0.0137252225356668,0.0122673355057429,0.0064350814947049,-0.0012032562647871,-0.0076431564923606,-0.0106143274023262,-0.0093781157871924,-0.004853305496926,0.0009219664195365,0.0056982754372174,0.0078805504737586,0.0070212792718807,0.0038150640575857,-0.0003206986187586,-0.0038561890438298,-0.0056943078060205,-0.0054629742689071,-0.0035019568342961,-0.0006227083399732,0.0022182268307497,0.0042063873311543,0.0048450304136122,0.0040090693670075,0.0019196155234247,-0.0009029531192431,-0.0036881195696958,-0.005513097351922,-0.0055274044608934,-0.0033252785982355,0.0006604048936396,0.0050216213039456,0.0077707295265998,0.0072666540507692,0.0032359490688454,-0.002787748893609,-0.0080347459976595,-0.0098743510837803,-0.0072273918872183,-0.0011864330443716,0.0079901280318453,0.0096819334177209,0.0093575216212786,0.0045292935581145,-0.0027346473445461,-0.0092276627663656,-0.0095088406784855,-0.0072375278939754,-0.0033604848317542,0.0042806697225954,0.0097845133111459,0.0107646259285124,0.0069030668591624,3.22746973885083e-05,-0.006753104638736,-0.0105018549702046,-0.0096687048337685,-0.0047089166573409,0.0021803063744441,0.0080155016648154,0.010291930959189,0.008063986277764,0.0023814515341379,-0.0041600584550655,-0.0086086249050863,-0.0090421887127827,-0.0054563045970845,0.0002995254603799,0.0054799747631335,0.0077793052684606,0.0063734509372268,0.0021938389908853,-0.0026354349603758,-0.0058617022684451,-0.003651118150297,-0.0036676950905973,9.422933654173932e-05,0.0031531957502975,0.0040698116725117,0.0026175498073188,-0.0001828578263658,-0.002648137021296,-0.0033426591586462,-0.001854499648172,0.0009633725670438,0.0034302414953232,0.0039585571256133,0.0019938798323101,-0.0015569628401342,-0.0047234672525363,-0.0055604798757766,-0.0033395366881666,0.0008969847135123,0.004834317008112,0.0086876281211309,0.0065031693023124,-0.0007987455110759,-0.0058560176943589,-0.0085261769017921,-0.0072435965960972,-0.00238249115381,0.0038299689451927,0.0082711705742652,0.0082639551821625,0.0052056239430715,-0.0025595794525578,-0.0097242761636165,-0.003039231432216,-0.0015390149655501,-0.0017343888539374,-0.002613443454561,0.0003902361500707,0.0093022108002318,0.0077303829848636,0.0051424287883208,-0.0077184455913358,-0.0101224261599726,-0.0029626588900004,0.0006153376781208,0.0008995596667051,0.0021069869999615,0.0031143552103884,0.0055584948820671,0.0021831087044946,-0.0011645760320426,-0.005742661064816,-0.0053321739613912,-0.001712141521014,-0.0003733380597225,0.0013880193697444,0.0031985133835576,0.0077232777654065,0.0045294266032105,-0.002913647693032,-0.0047214045654885,-0.0048923381462639,-0.0031248653397724,-0.0029583842508172,-0.0005857028202863,0.004085462216916,0.0082471750518824,0.00729110713434,-0.0017369426518262,-0.0056016677540003,-0.0016999515592967,-0.0017971934011028,-0.001986925339082,-0.0059672184571895,-0.006648301656307,0.0043973815390803,0.0123087498169649,0.0112763410577832,0.0044703484369487,-0.005800383035546,-0.0108348729495446,-0.0093788512492547,-0.0034948548039623,-0.0002339266569301,0.0028962815850181,0.0065707804991101,0.0090524084362895,0.0052680637778396,-0.0018076386023826,-0.0016011784377584,-0.003819462123644,-0.0087211389205701,-0.0065405489826726,-0.0006143703779693,0.0027446617261594,0.0031327423881923,0.004900084485573,0.0078308777253926,0.0074677608020107,0.0021027279443687,-0.008697490364853,-0.0110315340396791,-0.0073975916061526,-0.0052334925885483,9.085610980225188e-05,0.004453488334918,0.0088193490058466,0.0114304975591748,0.0103382447032974,0.0011096574740175,-0.0074886189326905,-0.0097004222959086,-0.0112442567416055,-0.0133676128353574,-0.0090157388909601,0.0082346573949726,0.0194998760806902,0.0197198441597991,0.0104889915818214,0.0015368774642361,-0.0119319713892369,-0.018444267876929,-0.0178979830586663,-0.0062987171414228,0.0019190413416052,0.0086142589614498,0.0112641453458511,0.0132768482929731,0.0123038210193195,0.0027771824014133,-0.0056125167847353,-0.0151085434719999,-0.0135783825670307,-0.0071637426586607,-0.0058620408961583,0.0009294740430778,0.0105042211766412,0.0152925991550504,0.0135106890136327,0.0042088211922166,-0.001494967448512,-0.0083096718804061,-0.0129899719521828,-0.0131377216739433,-0.008266725836421,-5.427907338243916e-05,0.0083223767404442,0.0135043072623798,0.0133766292633742,0.0079807564294631,-0.0004947495107874,-0.0086299586277804,-0.010699565631053,-0.0125252731327678,-0.0071478403324533,0.0005026078626676,0.0072271022826802,0.0104330693645364,0.0091874336754071,0.0069725856246688,-0.0014672528899566,-0.0062493997749316,-0.0082948673987826,-0.0072444012943627,-0.0038498543048548,0.0004791157984454,0.0042172335966772,0.0061717735723861,0.0057856395972724,0.003292774435617,-0.0003170366251326,-0.003599737457066,-0.0052148606873885,-0.0045340523064931,-0.0019639848214833,0.0012428295739776,0.0036078840288549,0.0041322381843438,0.0027205560818684,0.0001528948612915,-0.0023235689842767,-0.0035640194489423,-0.0030148242208633,-0.0009400532020507,0.001692067440086,0.0036194270992758,0.0038402878908979,0.0020932764645814,-0.0009505341210547,-0.003908110008852,-0.0052772186630507,-0.0041713386598449,-0.0008470653756598,0.003282403194843,0.0062308735182415,0.0063934478889848,0.0034154879376145,0.0009872505128197,-0.0061758148237011,-0.0084071456868619,-0.007132643194041,-0.0028914988662391,0.0024142481951552,0.0064517899265568,0.0075872738868434,0.0080861542971975,0.0015280230572421,-0.0028732816343717,-0.0060410217029916,-0.0070501810073328,-0.0057813480202925,-0.002779803858077,0.0010015933436983,0.0044469727794753,0.0065094276054769,0.0064745426545577,0.004233518347875,0.0004398302556654,-0.0036093169312404,-0.0064176955404536,-0.0069070711700045,-0.0048993840208924,-0.001194103779007,0.0028013241120719,0.0056705582709822,0.0065031618422228,0.0051311355138939,0.0020910456659049,-0.0015844198492655,-0.0046693103444489,-0.0061102623861224,-0.0053938004430812,-0.0027782384189012,0.0007602023525252,0.0039021137976756,0.0055257700673062,0.0051429439827703,0.0030230730271839,-1.9582541453442024e-06,-0.0028912509163822,-0.0047270928820646,-0.004946548652517,-0.0034804425962727,-0.0008005785418214,0.0021768538029332,0.0043739063559359,0.0049590852233286,0.0037083142589252,0.0011252901373389,-0.0017685415717533,-0.0038853788782764,-0.0045295102278714,-0.0036264575092202,-0.0016393827806478,0.0007182151802934,0.0027724604350387,0.0040372450865288,0.0042192193103078,0.003191933337992,0.001046969166474,-0.0017851278881346,-0.004476393183371,-0.0059614002117852,-0.0053550968445207,-0.0024716935340758,0.0018591270662925,0.0059542275982201,0.0079582985696928,0.0067584679149454,0.0026376529707192,-0.0027471422151983,-0.0071104042844182,-0.0086213702997971,-0.006731815550574,-0.0023305501556356,0.0027703926521593,0.00665973246901,0.0080390600682631,0.0065824495328451,0.0029249413593501,-0.0016216924169432,-0.0055099642309628,-0.007444446044498,-0.0067969236813881,-0.0038243242900909,0.0004020722187747,0.0043644531474533,0.0066573258205263,0.0065294216348781,0.0041706833657437,0.0005976821891453,-0.0028151936555273,-0.0049263981912635,-0.0052544058155514,-0.0040585458083282,-0.0020722981326665,-5.658609377245846e-05,0.0040472472303501,0.0026412159408127,0.0032484695550593,0.0033175935185928,0.0026927241174097,0.0012371383242446,-0.0009695510728636,-0.0034921514369619,-0.0055537447160687,-0.0062268072756453,-0.0047874972578646,-0.0011541486814125,0.0037887382701059,0.008253601784075,0.01015559960967,0.0081023729691449,0.0022877447617487,-0.005269579559083,-0.0114213545463758,-0.0132828267765024,-0.0096508326861278,-0.0017100524896377,0.0073588373860594,0.0137125307319257,0.0145245884214747,0.0092686804109178,3.51307387210458e-05,-0.0092921735588847,-0.0146938533246737,-0.0138104855630152,-0.0070512879415942,0.0025463377614873,0.010692702575676,0.0138316851629882,0.0107841425973279,0.0032405384407562,-0.0051359135653941,-0.0105232697989272,-0.010739769738028,-0.0061455842527587,0.0007239241290687,0.0065097324489326,0.0086431224185599,0.0064616300671284,0.0013737721479924,-0.0039252563286187,-0.0067846022778048,-0.0058649931801664,-0.0017717974843891,0.0032475812499427,0.0064325438213535,0.0059496035745819,0.0019206981520859,-0.0035414036023361,-0.0073885390612005,-0.0072842866318243,-0.0029657612349479,0.0034685965613422,0.0085797921861524,0.0094201995544057,0.0051957744720775,-0.0021677534538236,-0.0089166823569024,-0.0114059516835289,-0.0080782175631067,-0.0004028615812537,0.0077897086743149,0.0122731970768713,0.010651569795164,0.0036471707519891,-0.0052418859795929,-0.0115328349748489,-0.0120593014865275,,,,
