-0.0002729763312579,0.0008309204319865,0.0016307596720667,0.0021757421600077,0.0024760302518002,0.0023987513684291,0.0017293858078403,0.0003557399655556,-0.0015467115111336,-0.0034488742750754,-0.0045918955940107,-0.0042899596766869,-0.0023004636168477,0.0009254200709795,0.0042852585263052,0.0064102729167253,0.0062613108377669,0.0036652528083823,-0.0004962779224093,-0.0045997743459592,-0.0069949986144797,-0.0067711886378886,-0.0041520245332267,-0.0003030653405312,0.0033005980953414,0.0055424374729931,0.0060006033275786,0.0048617121008134,0.0026094414508767,-0.0002271845498627,-0.0031204940908738,-0.0054619187401228,-0.0065502993739143,-0.0057890109398712,-0.0030364029959504,0.0011182093957261,0.0053898065215816,0.0082134033207651,0.0083810038124557,0.0055951025652877,0.0006581815597142,-0.0047972383783799,-0.0088993959651706,-0.0101813342059123,-0.0080528228886767,-0.0030046474976855,0.003466600484184,0.0092197371807038,0.0121058074914133,0.010759820432061,0.0052661830235789,-0.0026504468873738,-0.010117273404491,-0.0141803327347497,-0.0105453028024922,-0.0069607077816611,0.0017527541328667,0.0096584309445886,0.0136898976376764,0.0124391400179029,0.0066688853207675,-0.0011593374171414,-0.0080593905846584,-0.0117582579195806,-0.0114007141595877,-0.0075270278171952,-0.0015758442592432,0.0046776235515061,0.0095168564985139,0.0115541260908567,0.0100176280080766,0.0050760504356738,-0.0019670507983227,-0.0088457255589064,-0.0129881965894107,-0.0125200421804577,-0.0072086547938334,0.0011717025627012,0.0093901874217366,0.0140944740929448,0.0133145443632279,0.0073624593559414,-0.0013317544241933,-0.0093266784745802,-0.0136261246502756,-0.0127989109568911,-0.0073515089544593,0.0006375307854969,0.0083252174153529,0.013025304770581,0.0130315289697833,0.0082031535984281,0.0001412669391401,-0.0082202127003379,-0.0136181284916656,-0.0137611727830265,-0.0083848628616746,0.0004747038683159,0.0092181196172858,0.0141878803903636,0.0132884549146818,0.0069512933878729,-0.0020457774224884,-0.0098392244101647,-0.013218348024313,-0.0110138526381401,-0.0045058386739661,0.0032815438506319,0.0090073840487016,0.0104797853239342,0.0075182811058269,0.0018774239011793,-0.0036857041826019,-0.0067466204256059,-0.0063166409557165,-0.0031870219275364,0.0006338250176505,0.003066254310705,0.0030615868410324,0.0010748285775978,-0.0013150143083446,-0.0023848873575211,-0.0012829203483679,0.0014710952131557,0.0042490953301123,0.0051922698842572,0.0032531392140263,-0.0011270068157429,-0.0060698894548912,-0.0090698101886456,-0.0082227894706204,-0.0032956443295585,0.0039343768802834,0.0103331840706218,0.0128246218053169,0.0098999864824702,0.0024493892896267,-0.0065377704675905,-0.0132725099008366,-0.0148313126301232,-0.0104147501187397,-0.0016858948581133,0.0078845617263887,0.01436278954886,0.0148885076769847,0.0088862687973756,0.0058515756247764,-0.0026975973573258,-0.0152174225963674,-0.0225367588822707,-0.0181633263292073,-0.0101483532514913,0.0150759344119791,0.0258877641507754,0.0270042643681964,0.0150403561085364,-0.0072150177364744,-0.0266750732682895,-0.0161527894528908,-0.0101190350797332,-0.0065910282932629,0.0018046482738155,0.0084576730873984,0.0145292156622437,0.0150510960042616,0.0093643366334972,0.0007396980245295,-0.0091023340236743,-0.0181611934884151,-0.0101484527755208,-0.0033471069722075,-0.0070785328387454,0.0107671663505918,0.0137622465652225,0.0118760160134937,0.0026820072922153,-0.004871465131112,-0.0072449938266039,-0.0110511272570682,-0.003190230165195,0.0108381495579586,0.0092027753448115,-0.0049355229782641,-0.0153878507483317,0.0022478998069462,0.0044995407795815,0.0020541083708147,-0.0013189246835094,0.0057845388803266,0.0080074951791201,0.0032455365531752,-0.001647436674202,-0.0052624849795045,-0.0180858153912018,-0.0162332186297474,0.0117916758550025,0.012989584548287,0.0093061424950999,0.0044873314460249,0.0029034401749357,-0.0070171822676598,-0.0045177042341671,-0.0027548232550194,-0.0040645303478823,1.174728718389856e-05,0.0015505880535769,-0.0052222607077993,-0.0083926998100033,0.0040948644011498,0.0200077043803945,0.0164774159350925,0.0018480617548384,-0.0167601072134047,-0.014388983221641,-0.008769807687007,-0.004732645632677,0.0012954220569898,0.0054282297960346,0.0121436270714302,0.0113173190646745,0.0067903114946541,0.0060197258965837,-0.0011939761402921,-0.0171507616339318,-0.033868303113563,-0.0235166548236474,0.0220418165746649,0.0328744410361763,0.0257040339034041,0.0088457917090188,-0.0107356451021477,-0.0204662240384272,-0.0242451887212581,-0.0180527593826243,0.0063488087543625,0.0230627582920225,0.0188124304716492,0.0115013975653093,0.0012171613144006,-0.0194159383870331,-0.0267159742265875,0.0013569079078349,0.0125586434944434,0.0142803735708965,0.0077674764871579,-0.0036695098608752,-0.0255264424933719,-0.003650371846008,0.0131707376447457,0.0127617261897889,0.0039317982125793,-0.014049109239455,0.0001012572044679,0.0132159682593481,-0.0016898447224163,-0.0216526395673998,-0.0203570985067518,0.0172277409904019,0.0264441324744858,0.0222805699038886,-0.0181021272430992,-0.0206829020639065,-0.0001511032536915,-0.0040670395662363,-0.0235406273849354,0.0191714014887489,0.0301160252595982,0.015242448269995,-0.007422902492291,-0.0281078697589587,-0.0170564163664189,-0.0024446748334943,0.0127363870674971,0.0111938611235634,0.0094514512091622,0.0064569911472234,-0.0019291584036963,-0.0123999759418859,-0.0141883027728947,-0.0065286671727308,0.0061592326575506,0.0176793744785532,0.0106288514012184,-0.0054624810015567,-0.0129710593036036,-0.005828695564634,0.0017046408961842,0.0020266280771325,0.0124321405969697,-0.0015326437323614,-0.0172324115124459,0.0070910741672974,0.012609476357276,0.000881075735484,-0.005979009368193,-0.0155407570457277,9.270865042995056e-05,0.0090052436559847,0.0071673599210018,-0.0026341472799857,0.003877875913959,0.0017877018633848,-0.0098546317524536,-0.0023974781796927,-0.0002970504318525,0.0072841736687228,-0.0029199136662185,-0.0007087046552034,0.0019512645408851,-0.0004477509472342,0.0005987581798206,-0.0010491108372558,-0.0055075462020903,0.0060532840991572,0.0074622728671564,0.0015337369873793,-0.0085596495852487,-0.0074216895556866,-0.007952839250526,0.006324299965683,0.0119489274066268,0.0045660078557267,0.0035443261552463,-0.0006181532460519,-0.0108283729061265,-0.0171199583944706,0.0009541073056258,0.0114566527088721,0.0118123488695677,0.0022066411435671,-0.0025732624123365,-5.113369992673483e-05,-0.0034436818186615,-0.0095735378550549,-0.0097837232265263,0.0048060508603597,0.0096188979058131,0.0060678375322434,0.0030825745742539,0.0036011481763929,-0.00447703158429,-0.0027469305835221,-0.0038967730511507,-0.0135258820412265,-0.0056905358303587,0.0092852248717927,0.0138142642459913,0.0091518365111396,-0.0003601857360346,-0.0093050282596675,-0.0052685284112829,-0.0024956896845196,0.0003998075703998,0.0010684513308373,0.0030423160094603,0.0029077379676441,-0.0027609834006545,-0.0038243314771526,-0.0033864710530133,-0.0010953104206936,0.0059198009903054,0.0085409797673282,0.0063193697684606,0.000436516289902,-0.0065045757413387,-0.0088378358447984,-0.0091415175749268,-0.006923512243605,0.001009040075969,0.0087718579277148,0.0128890726463054,0.0113881872831033,0.0047828121855685,-0.0040719956898767,-0.0112438936951582,-0.0135290216973898,-0.009937887966734,-0.0021466695783405,0.0063021815760963,0.0116636954419013,0.0117165539740458,0.0067237405425309,-0.0008132188229474,-0.0074339575042882,-0.0078720610240247,-0.0087822092858108,-0.0039368319024442,0.0016531717487155,0.0055816673676523,0.0065867134890938,0.0048623082413752,0.0016572370680275,-0.0014906980235244,-0.0034414352601595,-0.0037787096391577,-0.0027551916851331,-0.0010205380646428,0.0006800086431057,0.0017400789323943,0.0018558228744524,0.0036036659632716,-0.0001225466383592,-0.0012774534362006,-0.0018488961037265,-0.0015586231174542,-0.0005210014695173,0.0007758193221158,0.0016865757910396,0.0017069350410538,0.0007176166729652,-0.0009114259949266,-0.0024060271781718,-0.002888073151184,-0.0018313876704918,0.000535152138237,0.0031631972914975,0.0046172724340682,0.0038559724012582,0.0009288912092168,-0.0028796408874239,-0.0056373735431636,-0.0058013087678347,-0.0031106805437614,0.0012028443092318,0.0050311297964818,0.006494114387485,0.004916607354304,0.0011394154738567,-0.0029856968877294,-0.0055983161076099,-0.0057410127353956,-0.0012088314440789,-0.0007375868589849,0.004239044759137,0.0028223717816229,0.0024638641355798,0.0012704884691626,-2.245326366670469e-06,-0.0009125953837046,-0.0014385963457608,-0.0017307137552122,-0.0017990039389593,-0.001433176773969,-0.0004293738207344,0.0010770635858209,0.0024849102657726,0.0029777049289781,0.0020349174907321,-0.0001281292743846,-0.002509277271604,-0.0037520487049142,-0.0028778804510747,3.046857341418617e-05,0.0035183424675866,0.0049920841400827,0.0015133734238307,-0.0089069726468478,0.0009825508718275,0.0025580897658065,-0.0016821435039337,0.0055648554421649,0.0007435633384699,-0.0036858693097133,-0.0052795989882494,-0.0007803033134026,0.0027721951612573,0.0019798275868428,0.0020382715064271,0.0033804142075194,0.0006977362046685,-0.0030401758555704,-0.005195215159303,-0.0044142879110873,-0.0010344217840928,0.0031991384527027,0.0060274270834015,0.005835370856095,0.0025364648034623,-0.0022980801950849,-0.0062017774551539,-0.0071050336695892,-0.0044551101422694,0.0004668084398955,0.0052099841866933,0.0074316252236752,0.0060924569030917,0.0019367850769243,-0.0029653526241589,-0.0063137871224976,-0.0066928831211951,-0.0041457086302782,-3.504840502538207e-07,0.0038592060484203,0.0058581531612068,0.0053361414255913,0.0026983079332425,-0.0008546752289386,-0.0038484817910614,-0.005110094540412,-0.0042127119890086,-0.0016334126496816,0.001460911472289,0.0037328811460802,0.0042689277155608,0.0029633371197562,0.0005132116689266,-0.0019504287987131,-0.0033893080914185,-0.0032808741812315,-0.0017715723327922,0.0004417088667956,0.0024007638181371,0.0032446024874967,0.002557746120669,0.000595687888076,-0.0017580230460968,,,,
-0.0008923305667572,-0.0046386343952516,-0.006823727655429,-0.0070452939479658,-0.0053155544163049,-0.0019757134374307,0.0022757327397217,0.0063230037726638,0.0087388397392918,0.0082108159544821,0.0042300940359905,0.0001880941242713,-0.0090962536572909,-0.0106423859272687,-0.012165146271224,-0.0059139895061205,0.0033194574316338,0.0115056356345382,0.0147518094259674,0.0113320772595217,0.0027151102360758,-0.0070793972268397,-0.0134896512261024,-0.0136794195342241,-0.0078423001988456,0.0010721822623718,0.0089322119463642,0.0123984608943647,0.0103375315636235,0.004108521532666,-0.0032706962404274,-0.0085893442331748,-0.0098342458990559,-0.0069076446501891,-0.0014461544866668,0.0040562701105758,0.0073547363155216,0.0073168257514532,0.0042528909194288,-0.0003374099113893,-0.004447630367573,-0.0063915173287132,-0.0054587927369353,-0.00216096088105,0.0020117756379397,0.0052182582981606,0.0060341946187317,0.0040616625160627,0.0001295517840328,-0.0040232929190066,-0.0064842455319138,-0.0060254010476612,-0.0026986931711478,0.0021235403183974,0.0063064922793109,0.0078804804132962,0.0059422867149068,0.0011330207499305,-0.0045484934979786,-0.008568720325438,-0.008993203513538,-0.0054171313966247,0.0007683565865189,0.0069325021340234,0.0103469813831146,0.0094018405661962,0.0043521011221581,-0.0027449052379513,-0.0088947873838146,-0.0114671202172718,-0.0093460304475597,-0.0033964173342024,0.0064323143585265,0.0096174840817405,0.0112770544158999,0.0081614987721096,0.0015044512560429,-0.0059539933612897,-0.0110896632394203,-0.0117149310739398,-0.0075247961526382,-0.0002225069038691,0.0072235792890694,0.0118193707597605,0.0117274835808685,0.0069471730561509,-0.0007024839143947,-0.0082486863178188,-0.0126576183247199,-0.0120152054903092,-0.006399991506811,0.001911088941186,0.0090881506904172,0.0136055043622118,0.0053794437628689,0.0140030372315567,0.0054782086370488,-0.0091070851617407,-0.0265929169728415,-0.0352837119893047,0.0054427369503646,0.0227796230011767,0.0234837275688195,0.0148106680347426,0.0063272652009101,-0.0066939794840688,-0.020354503283384,-0.0343254262171935,0.0018322437585815,0.0172909302049016,0.0161489452326924,0.0082029884682125,0.0017982717615361,-0.0045225131564436,-0.0067977181880874,-0.0128659899417013,-0.0032810756855461,0.0072621301348658,0.0061628658013744,0.0052860498504851,-0.0027445317407554,0.0008445050321902,0.0016500025103141,-0.0022860161903866,-0.0069607833976706,-0.0059099110409077,0.000291001433325,0.0051702441098012,0.0075122789713766,0.0052318597179065,0.0013318304908664,-0.0014568232023002,-0.00919331097172,-0.0064906419200252,-0.0016478704926437,0.0019241839474433,0.0039304158709891,0.0033359488698836,0.0030336416495908,0.0028748189487554,0.0003756888064827,-0.0009686271322914,-0.0053794964061967,-0.0042454398228698,-0.0010256954484731,-0.0013697484999874,0.005164432614818,0.000449545821869,-0.0025769759717431,0.0001551617822968,0.0084473821638197,0.0085261869886934,-0.0020053168961735,-0.0096217324983815,-0.0108655377487872,-0.0051863726462236,0.0023245285570484,0.0071818702610737,0.0063910382025151,0.0068989549770666,0.0033444186470162,-0.0052956866449725,-0.0050751690469118,-0.0049351746892421,-0.0038130597407483,0.0010978003546493,0.000981131959626,0.0008189653936355,0.0002945229508366,0.0070183154219064,0.0077372366209549,0.0004359599556616,-0.005310356087906,-0.0096994114930841,-0.0086473409495598,-0.0004870962173039,0.0083708423377623,0.0047422401836722,0.004267444673398,0.007483408473172,-0.0026113189635437,-0.0066878743330675,-0.008650754779977,-0.0016158195371271,-0.0023263565805419,0.0013472404118729,0.0053996995076485,0.0104391129333151,0.0086000461881948,-0.0020844518000248,-0.0121484884422775,-0.0132906954189125,-0.0051914535911705,0.0087230402808501,0.0099557603539408,-0.0011832880876785,0.0026150362259828,0.0063058965428317,-0.0014645917472909,-0.0052097857321345,-0.004320124044553,-0.0044710667363121,0.000323232768696,0.0007375076961686,-0.0040358799493962,-0.0057045259907216,0.0116929663211696,0.0192401142628636,0.0156849756781659,-0.0063093952002737,-0.0263893456696567,-0.0329403694704454,-0.0025442922910153,0.0181702931614287,0.0188377706413425,0.0136567030537414,0.0039719231404475,0.0047379544567912,0.0011300425795898,-0.0107013979271797,-0.0348707610275141,-0.03028805815204,0.0174664221259658,0.0268141392196288,0.0276400720594789,0.0171554768445804,-0.0030325310627105,-0.022193333479261,-0.0309768700884414,-0.006974547796746,0.0043543146033116,0.0113085941057616,0.0083815607783439,0.0127106369834535,0.0033687482176484,-0.0037079466042793,-0.0021211669258391,-0.0116298485142256,-0.0105733316284495,0.0005900156131473,0.0056205235581805,0.0123296549726471,0.0061031317535014,-0.0002522294804792,-0.0067639962579328,-0.0115938578865063,-0.0107277222047209,0.0026708660677547,0.0173132958586647,0.0120551848198327,0.0020213327401492,-0.0013672952585929,-0.0132544804384838,-0.0124201058532825,0.0024095158201662,-0.0035912027150707,-0.0053704599296419,0.0115252513072519,0.0163488720321235,0.002329236130806,0.0002046443919854,0.0051124901438444,-0.0027577658952382,-0.0188517329872281,-0.021941359772104,-0.0065326601477069,0.0147341299022862,0.0151801171786437,0.0158560899294958,0.0091678732292138,0.0043735535721788,-0.008277043339471,-0.0177353298269161,-0.0154256941559813,-0.0149292717999698,-0.0083626676936254,0.0202838109055254,0.0308653609596722,0.0210075646260198,0.0001559146306271,-0.0224549168100078,-0.0207621606062132,-0.0098615819193508,-0.0012365027950448,0.0047464598261681,0.0071367945150708,0.0108826775561983,0.0117935861675971,0.0012085001377549,-0.0074336963407487,-0.0079832973880537,-0.0010441740102654,-0.0059093437170688,-0.008223732246447,-0.0007155770996359,0.0108092571269198,0.0119983755171731,0.0045954892486609,-0.0005554684314639,-0.0064865517412358,-0.0059376792249342,-0.0024618343726152,-0.0061644479489306,-0.0016290787477541,0.0014465006030731,0.0091421699736046,0.0090937393122606,0.0049285760302034,-0.001707054238686,-0.0089776669825431,-0.0108649080811333,-0.0045243402322503,0.0018391221837001,0.0039172005326396,0.0086927611871172,0.0063507401270769,0.0032603425007665,-0.0044209152293896,-0.0062648868624617,-0.0028545941306818,-0.0054548597046501,-0.0028871365740101,0.0027615004561423,0.0052240009010073,0.0046141912824172,0.0049680571042512,0.0035036614251607,0.0003531575712651,-0.0079301005148905,-0.0102450755208902,-0.0075230510456565,-0.0008341791689485,0.006671953861424,0.0112883382913287,0.0105749127994148,0.0046219232030657,-0.0038842492652326,-0.0108749167803,-0.0128499983870468,-0.0086376382678141,-8.408380633290423e-05,0.0087237708212276,0.0133910863893451,0.0113886106379618,0.0033935261879491,-0.0020192274123999,-0.0097429356151642,-0.0160767915442383,-0.0104955620735147,-0.0004926722869636,0.0089959067412936,0.0125567583542842,0.0113620801241589,0.0073841244642264,-0.0034760124709122,-0.0105267489030547,-0.0121718748517729,-0.0057155659544141,-0.0014866572867705,0.0011757268342785,0.0046841629096681,0.0079070713885235,0.0107147928143638,0.0057008889403288,-0.0018056746869298,-0.0061355950018895,-0.0104516478945951,-0.0111801832809529,-0.0069253394866515,0.0010042754076903,0.0092632735341061,0.0140536882289468,0.0129442314819681,0.0060880647805924,-0.0037508900629844,-0.012388425188064,-0.016061577843303,-0.013064623745406,-0.0044752799429718,0.0062770092565225,0.0147740557330208,0.0173737778640116,0.0127334233346056,0.0024914213123338,-0.0092545755102023,-0.0175751345824588,-0.016325701723095,-0.0098452746356183,-0.0008839074221021,0.0105935054289583,0.0171830928948601,0.0162310498029716,0.0084202938826137,-0.0026544448682843,-0.0121622041083485,-0.0161682277675866,-0.0132676822860263,-0.0050478394325042,0.0047458089644486,0.0119168710793794,0.0136362139634441,0.0095817332467075,0.0019165414136313,-0.0058396311838074,-0.0104655576297945,-0.0104099770103544,-0.0062627733787523,0.0022724690798029,0.0050029945232197,0.0074229174924273,0.0064707925513756,0.0030528365654027,-0.0010987706891201,-0.0042927723638672,-0.0055177576839795,-0.0046402468332127,-0.0022269737390807,0.0007889828082041,0.0034121546618825,0.0048027129362464,0.0044472153313921,0.0023231178147784,0.0015044475245677,-0.0044182221472954,-0.00663158718198,-0.0065388186648067,-0.0037684111259167,0.0009581417273226,0.0058989515558123,0.0089035665416146,0.0083560266819262,0.0040298989795013,-0.0025907413222632,-0.0087735802430563,-0.0116744727837002,-0.0096762486842188,-0.0032830804898412,0.0049345320203334,0.0114096654202904,0.0131967921257973,0.011832876178889,0.0012611331008427,-0.0077867396018619,-0.0140723736921236,-0.0148344862322072,-0.0094846831040021,-6.790698188288182e-06,0.0097241656437137,0.0155417804645969,0.0148554398799388,0.0078897069777037,-0.0023586790668196,-0.0114658604590648,-0.0155839569665005,-0.0131382298484408,-0.0054296007017993,0.0040898673157935,0.0114523121214873,0.0138922092423478,0.0108566508427753,0.0039578221171099,-0.0039323919126282,-0.0099105862252432,-0.0120562867959361,-0.0099220235315707,-0.0044648510140841,0.0024130460889464,0.0084782895433516,0.0117588420197993,0.0110490524428048,0.0063034016191274,-0.0011725391993007,-0.008906742763912,-0.0139427149695864,-0.0114431965000102,-0.0083527555783506,0.0010148831762599,0.010475052411381,0.0159656414529334,0.0148842824558081,0.0073915329788365,-0.0035219085682129,-0.0132958341245574,-0.0177820502408662,-0.0125348077774093,-0.0061619573680455,0.0051348647840679,0.014156893483361,0.0172028016716088,0.013090768730733,0.003618544742101,-0.0072126788104651,-0.0148963618986232,-0.0163185851725579,-0.0110346027717344,-0.0013842952745571,0.0085637200133704,0.0147435656043404,0.0147536106197025,0.0087788166311873,-0.000567510990457,-0.0093840688674728,-0.0141121275996618,-0.0129715439886026,-0.006617424802504,0.00221470688518,0.0098781113147193,0.0132981861525279,0.0111909085908318,0.0045573428807104,-0.0037474681254971,-0.0102261403461939,-0.01223840541363,-0.0091203959525635,-0.0024056184304582,0.0049368043783064,,,,
0.0048858841847693,0.0026917279049137,-0.0012070850737335,-0.0048458509430068,-0.0062493332449365,-0.0044423023463762,-3.2833971858125445e-05,0.0049540127520094,0.0079779193557924,0.0072387212462178,0.0026806674768814,-0.0038025471510692,-0.009151786670156,-0.0081162911535428,-0.0072174323596672,-0.0003667578335107,0.0067870586203986,0.0109136311171764,0.0101119768847245,0.0047872205824661,-0.0026083103610545,-0.008793014345397,-0.0111761721706947,-0.0089322150375457,-0.0031959200394477,0.0035730349089686,0.008665595333513,0.0126558055361315,0.0075312185123831,0.0018255821655859,-0.004719251903436,-0.0094569040524221,-0.010407379977512,-0.0071343277212278,-0.0009911167876222,0.0054279074227823,0.0094217546119393,0.00938551537738,0.0055033737888174,-0.000400213234831,-0.0057526428219463,-0.0084015392784262,-0.0074943449735385,-0.0037054667410436,0.0012019737917804,0.0051971840635113,0.0067939310993128,0.0055482688984184,0.0021267052648645,0.0004767605245306,-0.0052793522641449,-0.0064744764389713,-0.0052844838812543,0.0001977828531843,0.0011913366265389,0.0037677939573754,0.0045086388970176,0.0033674695150094,0.0010384381879025,-0.0014751677447485,-0.003280165689919,-0.0038305468041601,-0.0030019198966942,-0.0010908003984724,0.0012449371503171,0.0031552833043262,0.0038887589742488,0.003110522275993,0.001085859210063,-0.0013951337411054,-0.0033414966808643,-0.0039799143818204,-0.0030667249388581,-0.0009685974433507,0.0014924921751034,0.003356105843521,0.0038954598121891,0.0029136780941417,0.0008308697511101,-0.0014992096303685,-0.0031652542517211,-0.0035765560794969,-0.0026576044326049,-0.000796230864324,0.0013702673131382,0.0031742831995969,0.0040201567494146,0.0033560249901965,0.000628000954914,-0.0045896195299254,-0.0121165806534709,0.0014431567353996,0.0093090904209322,0.0040242465418876,-0.0010312068576037,-0.0021340933939248,0.00012158840296,-0.003358360016157,3.5291925396013776e-05,0.0049765181035716,-0.0130740760205304,-0.0042622986234603,0.016176462617342,0.0042495106934635,0.002047194817333,-0.001118940503069,-0.0024710355942608,-0.0039534288224411,-0.005577643690972,-0.004683539261106,-0.0039110265343172,0.0034943165249242,0.0115763745157639,0.0059533783789723,0.003607992386896,-0.0009746980067357,-0.0049677843166046,-0.0064993894169113,-0.0069623607423289,-0.0031104073278833,0.0015328618584404,0.0038410089039896,0.0057198938355119,0.0074077052830812,0.0018233471970443,-0.0005751855984229,-0.0035927438418238,-0.0058346964331359,-0.0060965376386159,-0.003997634203752,0.0020816914303808,0.0026017355475567,0.0075741357571717,0.0056643613732495,0.0042659285698718,0.0004734207072731,-0.0031094755645653,-0.0118557223501683,-0.0203523192909053,0.002604912426228,0.0146088539465423,0.0148214868240225,0.0073597965957786,0.0015354278507387,-0.0087705851489766,-0.0119899805557779,-0.0064651264644618,-0.0014709064809744,0.0008179844727189,0.0016971529337576,0.0045847142268466,0.0103418642162145,0.0081592931349945,0.0044551342777227,-0.005966831571083,-0.0127302987538317,-0.0149657015442361,-0.0094630612870552,0.0055332347926708,0.0116755107827002,0.0128920243074749,0.0116308307981657,0.0052771014014113,-0.0040234796785775,-0.0126343630475501,-0.0162532147431754,-0.0118280932451986,-0.0009417618990115,0.0070904702932475,0.0105355171319332,0.0123043138495721,0.0172358651964716,0.0061353989127189,-0.0158402624678477,-0.0173674041239874,-0.0132268226591363,-0.0054729753372136,0.003752043103086,0.0039151042388716,0.0146020354775304,0.01419690716939,0.004300512528001,-0.0083057954953528,-0.0064292449093542,-0.0027342445307529,-0.0076007078112466,-0.0038337504504484,0.0006875620670444,0.0029382277169299,0.0034624720637794,0.000134928500171,-0.0021661141232088,0.0064528393356592,0.0138039910105682,0.0018135442881961,0.0004388203567652,-0.0200299566440743,-0.021948717771466,0.0025952823939135,0.0099469015448078,0.0068626108197475,0.0042980780301693,0.0157346261583961,0.0068160524118219,-0.0003679355781175,-0.0176440612486181,-0.0108640470379547,-0.0148185878867196,-0.00867634432919,0.0110493763929443,0.0214824205129498,0.0218865265884881,0.0046699516403674,-0.0176585795502717,-0.0068274922827687,-0.0060047613530366,-0.0175282725912447,-0.0058986603933697,0.0081833499359584,0.0167620038213066,0.0124196267970219,0.0118752686536253,-0.0055899980221976,-0.0253793371626312,-0.0041544632643133,0.0095904817510878,0.0055159222105952,-0.0079510754609492,-0.0126113372258117,0.0048015012551902,0.0087167255120539,0.0109841616432204,0.0083435981156165,-0.0008377329854618,-0.0046404562753374,-0.0114561074483566,-0.0163665311643028,-0.0038819554416562,-0.0002550933082137,0.0149370660912716,0.0299899452822097,0.0115592195923094,-0.0247241561307484,-0.0313319185343751,-0.0059000513215017,0.0155876069889184,0.0177929962129451,0.01130907554073,0.0017021288440229,-0.0212311981953322,-0.0141547601583982,-0.0037754935613941,0.0079814574816405,0.0176969382346424,0.0099484456371038,-0.000984147306324,-0.0125176652655747,-0.0190207949353819,0.006984969859804,0.0094963423037753,0.0082655465705426,-0.0008053676351476,-0.0113720414803083,-0.0086227645602847,0.0030400222379805,0.0104233637985555,0.0031283476732818,0.0027942210176056,0.0068357573215478,-0.0084285009844852,-0.0149549464770733,-0.0007227081604539,0.0054575460689417,0.0005339409335862,-0.0012953480111837,0.00260752839907,0.009069669363763,0.005851974023369,-0.0007872664579404,-0.0079916971751559,-0.0085187003547339,-0.0025410251988777,-0.0034841866502338,0.0044708899806216,0.0032030082077888,0.0042440703549782,0.0008215697579753,0.0046703749417661,0.0105406483652184,-0.0006757344232085,-0.0134631501008061,-0.0159721395429809,-0.0090619207450514,-0.0002638727261732,0.0129604918274469,0.0153768060106109,0.0163764620635377,0.0035371500205735,-0.0068784511146084,-0.015904504202804,-0.0179431875898672,-0.0094490503036457,0.0013435363368519,0.0122052488553369,0.0152729457783675,0.0085673064487698,0.0036850906200981,-5.8832794588218866e-05,-0.004412715990602,-0.0095992470812649,-0.0124471941394983,-0.0097679981928525,0.0005254111149748,0.0080650755266531,0.0113496140525198,0.0103187525877977,0.0065239703315817,-0.002300977716185,-0.0068778799948496,-0.0087549083834279,-0.0085196146005006,-0.0027869638904881,0.0019760304637915,0.0048132885211289,0.0055426475070678,0.0045334286116142,0.002391404816631,-0.0002093825177562,-0.002537453484547,-0.0038474761286301,-0.0036145330486825,-0.0018797552314072,0.000585851913075,0.0025513522490136,0.002972648261362,0.0016331363255423,-0.0006586222005893,-0.0024821086464291,-0.0026164505434622,-0.0007988210295165,0.0020118466389225,0.0040757518139613,0.0038567277457928,0.0010249620670267,-0.0031650405521459,-0.0064493959625791,-0.0043215240871717,-0.0037569819280973,0.0013963999569721,0.0061286166551831,0.0080828469723819,0.0062084569275306,0.0012349565266658,-0.004671289831946,-0.0063833003197647,-0.009510877108298,-0.0062554854977816,0.0019844377890444,0.0052279678024008,0.0084882388084642,0.0079081086479175,0.0038754354733022,-0.0017178052715826,-0.0063947651158992,-0.0082104107542692,-0.0065577964734892,-0.0023400917959636,0.0025183930250683,0.0059750463155138,0.0067696161532512,0.0048984566608378,0.0014432351140411,-0.0020953932311025,-0.0045113836527041,-0.0052426801671215,-0.0042967855249485,-0.0020266289086369,0.0009658445507431,0.0038064644964046,0.0054480429778784,0.0050511524601695,0.0024938525360662,-0.0013570133611681,-0.0048865858616747,-0.006439887239461,-0.0051513094024817,-0.0014511261436477,0.0030504204936123,0.0062867315073108,0.0067245449783498,0.0041180716642644,-0.0003632195536545,-0.004694433433415,-0.0069473903424451,-0.006161608466708,-0.0027377137078106,0.0017919865368578,0.0054783047889378,0.0068160501394968,0.005361588181234,0.001845324343113,-0.0022312302534201,-0.0052795916440578,-0.0062510177511185,-0.0049508457468206,-0.0019830762044137,0.0015613918958821,0.0045034695278938,0.0059265731623629,0.0054020700978578,0.0030683070678068,-0.000408817218969,-0.0039606242555116,-0.0063461372969466,-0.0065361258584696,-0.0041958427972547,-2.5522235023893028e-05,0.004348304324452,0.0070349303077876,0.0068190298976345,0.0038305984856459,-0.0005079966872742,-0.0042596853039806,-0.0059851731521746,-0.0053585671319114,-0.0030751196746251,-0.0002496958091309,0.0022021881315348,0.0038186278160451,0.0044583595202479,0.0040518573090117,0.0025305164247815,1.096123783764262e-05,-0.0029511364068682,-0.0053313061476769,-0.0059925346736926,-0.0042982728424654,-0.0006099775549324,0.0036970639796779,0.0067860006390481,0.0072087423967121,0.0046095193385271,-6.160433976996202e-05,-0.0049075092562161,-0.0078535944171789,-0.007527584275559,-0.0039091342158692,0.0015445934995134,0.006434735292767,0.0084793343339876,0.0066463254338939,0.0017605103891232,-0.0038284517961904,-0.0074232383489935,-0.007378376514164,-0.0039278937041017,0.0010236620189263,0.0049954395405764,0.0062510031028586,0.0045935659669911,0.0012440734226254,-0.0020170248556407,-0.0038485468481345,-0.0038898902481625,-0.0026285266134599,-0.0008515037855297,0.0008424292522094,0.0021644273087001,0.0029541629978132,0.0029944821576286,0.0020598616056252,0.00018199873995,-0.0021104428582995,-0.0038546800599638,-0.0041018409554997,-0.0025234991978124,0.0002472321165207,0.0028577300821229,0.0064713305807151,0.0030229989137285,0.0005431325771074,-0.0021211769574983,-0.0035693897102597,-0.0031580908723643,-0.0013303912803406,0.0007317044757594,0.00187524872742,0.0016596738635741,0.0005327857781231,-0.0005675265625089,-0.0008699621266916,-0.0002332457416779,0.0008435874981557,0.0015907859429688,0.0014354900353723,0.000303610969186,-0.0013575689973024,-0.0028007099704387,-0.0033170646478988,-0.0025368387748549,0.0019021736552232,0.0018342643344806,0.0037535100852419,0.004228435410571,0.0028502221207265,-2.4904750636159276e-05,-0.0033443334442341,-0.0057273042856462,-0.0060151458996277,-0.0038086708262707,0.0002294852546298,0.0069873189080578,0.0069859813131297,0.0063181278908335,0.0025250937718744,-0.0027176850193145,-0.0068789887342595,,,
-0.0014286892621082,0.00156200869974,0.00361341415998,0.0040614442719086,0.0029175652804699,0.0007376289845235,-0.0016215977105627,-0.0032739132588062,-0.0035836081670972,-0.0024163055767142,-0.0002512004799752,0.0019657603573261,0.0032314493697193,0.002983189609818,0.0014096585501392,-0.0006307040791932,-0.0020743792428487,-0.0022517605748907,-0.0012631536695019,0.0001128324274445,0.0009379753824614,0.0007355966512764,-0.0001973030108441,-0.0010061921338381,-0.0008869790710853,0.0003220908916809,0.0019667709254629,0.0029475336611384,0.0024061898261494,0.0003009462155213,-0.0024825833234517,-0.0045545034535769,-0.0047433043072781,-0.0027271399723339,0.0007571989789543,0.0042302819778049,0.0061467055936104,0.0056005370488644,0.0027306777478615,-0.0013464928195048,-0.0050228018753761,-0.0068627958683103,-0.0061556581609973,-0.0031547390753856,0.0010389729920813,0.0048739386504319,0.0093769786880443,0.0061477907544243,0.0027289642412957,-0.0022513885736058,-0.004371438623367,-0.0066885240678167,-0.0081424583787953,-0.0040675513733892,0.0014361114702874,0.0061601553646678,0.0082115473890136,0.0068393777369708,0.0027632431582208,-0.0021837315522759,-0.0059163493267897,-0.0070204226608862,-0.0052961814068521,-0.0017143844077394,0.0021231111002288,0.0047188270655758,0.0052668934238401,0.0038612335669689,0.0013003455715192,-0.0013474367115341,-0.0031825689905126,-0.0037426471720054,-0.0030516399131867,-0.0015017990636925,0.0003422206475888,0.0019348790198421,0.0028791872294653,0.0029706052818807,0.0021777811639616,0.00062230005639,-0.0013886103739404,-0.0032989263547643,-0.0043211831902158,-0.0036494487847497,-0.0008757093878269,0.0035297562434099,0.0079089109844422,0.009505707073537,0.0050788809297495,-0.0079698715558798,-0.0300198274439688,-0.0137365438743702,0.0206603031409753,0.0241561859121945,0.0142977266192276,0.0026607179762957,-0.0152466540538028,-0.0301934739810359,0.0001173090994747,-0.0110515039550353,0.0151983006469931,0.0235834070418151,0.0065091844234058,0.0018995986475483,-0.004920720310355,-0.0124498997668002,-0.0114760591270317,-0.0056026549261996,0.0029898617700001,0.0090576123022472,0.0071319186409768,0.0013917137487636,0.0021734610326017,0.0005730296547822,-0.0034726449454158,-0.0046192191408678,-0.004567548607755,-0.0006585785083396,0.0002132082535573,0.0021139958179626,0.0055613357783661,0.0022065988223021,0.001036212632354,-0.0037897649434284,-0.0019280945750411,-0.0029798545455205,-0.0005090224465081,0.0017248838793765,0.0021667744405693,-0.0003324299919908,0.0038886311900399,0.0011615561917193,-0.0019887675921724,-0.0036817689654155,-0.0029548990218287,-0.0021086507153032,0.0009107141825578,0.0025652426024751,0.0018925624446156,0.0056297713863665,0.0032103879641096,0.0016319694642127,-0.0044282302068313,-0.010199729233068,-0.0051125656223198,-0.002189183326566,0.0002812412783221,0.0109587424766821,0.0079179481367172,0.0021980289359909,0.0014272547205167,-0.0009018412558576,-0.0056196897186746,-0.0100226685953602,-0.0057817239686267,0.0014813509725698,0.0006473758143329,0.0016455630484675,0.0059894266240003,0.0098682912426326,0.0119120250660752,0.0033990600993876,-0.0137819460653076,-0.024323666360447,-0.0088948265536421,0.0062116694686069,0.0134213906725141,0.0075716362144221,0.0034603820251657,0.0009106407907638,0.0006728274584974,-0.0044329728469848,-0.0034252542856848,0.0026574316679096,0.0001896895246806,-0.0110369267362382,-0.0080618235003132,-0.0019237137623207,0.0046010153051117,0.0196576841799016,0.0158716540946097,0.0046390989424293,-0.0132504306612284,-0.0158911582761624,-0.0140850314735773,-0.0115855049595533,0.0023572108053156,0.0144363147413185,0.0240281512082606,0.0185342246421853,4.912402158820727e-05,-0.0267623405771067,-0.0237740899761359,-0.0050599759041373,0.0063729948561686,0.0196578854838196,0.0095090296115996,-0.0083428057715973,-0.0084003509257056,0.0054923081563209,0.0076613933667064,0.0051003949449726,-0.0042584915271701,-0.0123253060817652,-0.0246605332112452,-0.0016506485797574,0.0266508259572831,0.025162260184726,0.0086830197868322,-0.0146138205415461,-0.0159762213729233,-0.018010627134869,-0.0087358955557806,0.0074537299874924,0.0182327497480196,0.0195148331241893,-0.0007997952314074,-0.0080892643099748,-0.0060001588966526,-0.0093355548003552,-0.0087536538524933,0.0027902417227342,0.0053834621336549,0.0062852584561035,0.0028159472283444,0.0076409334115564,0.0056651162073316,-0.0098674480978125,-0.0157964016906394,-0.0065389935032731,0.0011268997069693,0.0113039189026645,0.0070928384446231,0.0079101978997099,0.0028970731978287,-0.0017423488578711,-0.0102885622319015,-0.0158957765697738,-0.0079909488368261,0.0025982264937444,0.0118011737183473,0.0183101982258919,0.0100991136934668,0.00291488469403,-0.0116605391616092,-0.0221319428357482,-0.0119019101720325,0.0023509333110618,0.009274406675499,0.0042922902650626,0.0115937455658687,0.0104071165967504,-0.0002836671684337,-0.0099082763857116,-0.0058499735579255,-0.0055406275631312,-0.004432264941517,0.0010555660815583,0.0002884406896857,0.0034178576681202,0.0012203006690192,0.005807415011485,0.0091808430914253,0.0042554829565876,-0.0021780712118545,-0.0125590478228981,-0.0139182587886108,-0.0061111332543243,0.0046617043288126,0.011304958950379,0.0095990385713396,0.003027389495311,0.001883375666566,-0.0037791778986291,-0.0100569665917352,-0.0028267264567954,-0.0015868722778685,0.0043834231571012,0.003937874809901,0.0002828045704967,-0.0069909047022499,-0.0016204830788645,0.0060122892437121,0.0057370743015919,0.0024098245217856,-0.0013744882390688,-0.0033413045977532,-0.0058437110902449,-0.0018040096158082,-0.0007212935546819,0.0024686538542032,0.0033548109378171,-5.353306219757416e-05,-0.0003406410765826,-0.0020781020517731,0.0043515453599896,0.0035256616437249,0.0018811536982423,-0.00136602826927,-0.0061648818223903,-0.0065176279829311,-0.005735095066543,-0.0003311450965407,0.0065396724248656,0.010417490794714,0.0061446958275262,0.0047050351720465,-6.518289153179065e-05,-0.009264173115626,-0.0142758086626903,-0.0105222946885825,-0.0017219374226857,0.0081454613677407,0.0143068580000509,0.013663959893787,0.0064034089041034,-0.0041053376148988,-0.0130037810244326,-0.0137900106946653,-0.007766033395779,-0.0015635034691822,0.0053967795660049,0.0114826985008315,0.0118237923361222,0.0067939451789698,-0.0009395940354423,-0.007804811339472,-0.0109491679068114,-0.0093799218988216,-0.0041724670930336,0.0047161847009337,0.0070829411573485,0.0085711575779176,0.0063510671772961,0.0016285091697435,-0.0034919671210674,-0.0069430341367372,-0.0075030810670067,-0.0026869968851362,-0.0011409952117774,0.0029026121503612,0.0053921407630137,0.0055518278100201,0.0035517988600875,0.0003045946346826,-0.0029297807634088,-0.0049681724227137,-0.0050617318023984,-0.0031388815988601,0.0001194679111357,0.0034438131723919,0.0054100028800358,0.0050452964045128,0.0023523626459995,-0.0015573439557974,-0.0048864990935989,-0.0059950770520865,-0.0042473102088809,-0.0003925590454354,0.0037529383551112,0.0061742797073931,0.0056390570406844,0.002312470326661,-0.0022845971519736,-0.0059656749002152,-0.0069175749848586,-0.0021300299560361,-0.0002608497399235,0.0038832489533657,0.0081008303228305,0.004039523532177,0.0001772274501714,-0.0037299143271395,-0.0054749488732713,-0.0042207418420375,-0.0009368305914684,0.0023184680081986,0.0037410641921919,0.0028360175554885,0.0030180882177044,-0.0017101199443196,-0.0027854851611604,-0.0025556071412209,-0.0015411356980275,-0.0003695267654504,0.0006328363346234,0.0014246586436646,0.0019501793655507,0.0044290972071808,0.0009768766856432,-0.0009840699713726,-0.0033519851605552,-0.0049380933864661,-0.0045861471838933,-0.0019201676248257,0.0022615859695179,0.0061996643454386,0.0079245960000393,0.0062105020096604,0.0012862956543573,-0.0050574575411661,-0.0076042573990298,-0.0114030999857887,-0.007962583904323,-0.0008327617101861,0.0071977940946989,0.0126985156269003,0.0130922506914007,0.0078883173954033,-0.000975120260465,-0.0098931843794415,-0.0126395766267177,-0.0144983865542817,-0.00820300590825,0.0012330153384715,0.0100944276717086,0.014933019266319,0.0138947789461979,0.0099140994872304,-0.0020085062184656,-0.01079179603757,-0.0155858260214648,-0.0145042058851272,-0.0078922706992965,0.0017156912042885,0.0105332268205173,0.0150523862699709,0.0135427954232272,0.0068090473791215,-0.0022035746271145,-0.0097792140190181,-0.0130753961937353,-0.0112259139279077,-0.0054531423470851,0.0016964495291469,0.0074941178783134,0.0100179984945526,0.0111656165371585,0.0041411765121449,-0.0018785915539174,-0.00473456137665,-0.0099661258839154,-0.0065667747118713,-0.0049603752707743,0.0006067556703097,0.0053148349458485,0.0073249718235569,0.0060895076822059,0.0025237376427054,-0.0015310238760467,-0.0042624358430542,-0.0047448322724973,-0.003257256207035,-0.0009444072752585,0.0009262440422359,0.0041418662864116,0.0012688613452937,0.0004097802325824,-0.0002493230391443,-0.0003585720159595,-8.02309090661526e-05,0.0001042836277665,-0.0001764239176816,-0.0008403001017932,0.0011151966712023,-0.0013202270868433,-0.0006265353181814,0.0002072254423297,0.0005822629296366,0.0002790753085509,-0.0003503430339266,-0.0006523171248446,-0.0002023921011327,0.0008231180128222,0.0017262801426867,0.0017584336488282,0.0006433020932283,-0.0011958469284035,-0.0028290786852947,-0.0033026889043955,-0.002154917932189,0.0002819685025114,0.0029478710850307,0.0045025747541374,0.0039939115671762,0.0014333202070313,-0.0020656841074105,-0.004759345431474,-0.0051834253849543,-0.0030041965167432,0.0007255011330888,0.0041032992222736,0.0054041915315491,0.0039926952880276,0.0006168756170982,-0.003024121317509,-0.0051489100324768,-0.0047369399757019,-0.0019725197848477,0.0018561420328996,0.0049281651512914,0.0057045930480869,0.0036665236859102,-0.0003608430011417,-0.0045096995955537,-0.0067225023539936,-0.0057706390316662,-0.0019225908679094,0.0031044068835395,0.0069235883627648,0.0076325986068088,0.0047771888526284,-0.0003758992129394,-0.0054279242643787,-0.0080215683923949,-0.0069936220861172,,,,
-0.0036768790721588,-0.0062002895803659,-0.0058703345745193,-0.0023866408666524,0.0030093375453503,0.0079251159296371,0.0098213235673884,0.0072566722238975,0.0007954928034942,-0.0069680301584334,-0.0124494146996154,-0.0127732809385858,-0.0072788971914381,0.0019893397168751,0.0110973182258116,0.0159529145331525,0.0141417368471324,0.006060518587088,-0.0051228329047609,-0.0146907236056922,-0.0183454070583541,-0.0141583097114027,-0.0036205323081631,0.0088164457214795,0.017657444016101,0.0189033913911569,0.0119561692503794,-9.942570194648422e-05,-0.0119698564646447,-0.01859952600763,-0.0173721724381899,-0.006603997706592,0.0024709787754135,0.0124154279371284,0.0167358229879558,0.0139837424828787,0.0056661326910065,-0.0045599112207365,-0.012477863321909,-0.015024672835977,-0.01144751632327,-0.0034707607036369,0.0055312595350092,0.0119497396257402,0.0133522113312684,0.0093697918014538,0.0017699095028579,-0.0062944784361059,-0.0115757595229005,-0.0120479939399186,-0.0076918132746383,-0.0004136798184723,0.0068310629060292,0.0112728730344025,0.0113556231625115,0.0071698710549954,0.0002501901256627,-0.0070298184102377,-0.0121754521510472,-0.0132239645559476,-0.0092734685768585,-0.0008652582859821,0.0098114038296758,0.0189205943215734,0.0212282127152283,0.0107528707450176,-0.0177739995020739,-0.0152321922947605,-0.0248830486594654,-0.0204727987306366,0.0291879305451314,0.0141240004623336,0.0054096178825841,-0.0045958276225022,-0.002609412677668,0.0061639763832038,0.0175562181853715,0.0151568640849692,-0.0139560827902499,-0.0679076205964397,-0.0445257499661125,0.0585046745861999,0.0578126431115471,0.0200127437907409,-0.0130133437048094,-0.0252837257565104,-0.0243081194348443,-0.0087940534905377,0.0074531580924992,0.0165803773028706,0.0079347644846476,-0.0132676744469441,-0.0080908937572416,0.01426507133775,0.0084502246456534,-0.0007259535840258,-0.0072815129882469,-0.0065068875522549,-0.0026756284926643,0.0025216747080185,0.0035187617867436,0.0016400613697092,0.002002617992766,0.0010692689602813,-0.0025257039507692,-0.0088314886122232,0.0053940211356438,0.0056804047003696,-0.0132209310007181,-0.00868541862559,0.0241904676647231,0.0204752552431992,0.0036409521830779,-0.0218569810408682,-0.0437998883533252,0.000516614068177,0.0171884985316254,0.0202599467781996,0.01793406904317,0.0085142349802971,-0.0031967903677285,-0.0234368775643381,-0.0253010607241233,-0.0040448260720316,0.0029731088981527,0.0250625203331784,0.0206527962713677,0.004346575292878,-0.0133766196026931,-0.033075765916473,0.0014892416964681,0.016918379130666,0.0084072851625597,0.0023838373084284,-0.0047137347669575,-0.0075629867285909,-0.0031975678232579,0.0034448136846888,0.0016281608900064,0.0052321958085676,0.0039365988636427,-0.0040792706671975,-0.0065770238153074,-0.0049161913280098,0.0001349272301527,0.0065845743157039,0.0075037567086421,0.0036418634379192,-0.0028348916409185,-0.0086634160022884,-0.0069843367029081,-0.0003226459645519,0.0062422103175508,0.0014240662285397,0.0046172504261207,0.0026711674742217,-0.0006463300915973,-0.00377282270104,-0.0020614735183235,-0.0021161477364978,0.0017623416678044,-0.004471818120527,-0.0020212994425212,0.003003789893013,0.0061954610070428,0.0056918694102907,0.0003475981203765,0.0001470411938252,-0.007927672629179,-0.0040470929569576,-0.0049614470132927,-0.0012507917570149,0.0024072220854372,0.007139463170877,0.0083307418701129,0.0033790922334204,-0.0021686185014854,-0.0060910281068104,-0.0046497407118856,-0.0051924886869435,-0.0006339597722457,0.0029308699881256,-0.0003910519117603,-0.0054736180737574,0.0113734266472278,0.016506384733766,0.002041152486779,-0.0112749104906707,-0.0152226846212393,-0.0072936616287554,0.0045442234664072,0.0060891738205411,0.0031024366481634,-0.0044684359751172,0.0012228164972032,0.0077743376731601,0.0128482878670904,0.0024787899640518,-0.0100276960781218,-0.0112522739750973,-0.0135799147156658,-0.010205974238346,-0.000255619412288,0.0131982226872597,0.029557725743995,0.0206875951657839,0.0024925134716531,-0.0201395708159989,-0.0457351293710836,-0.0255298702335395,0.0208919076973312,0.0318327276136461,0.0228833561150952,0.0048405311386312,-0.0106719321997402,-0.0255225787026397,-0.0098561304649403,0.0054625383208423,0.0062849992395685,0.0047258528359587,0.0111189040252856,0.0072547956218522,-0.009334572272496,-0.0252984400357971,-0.009419690943857,0.0192972717473467,0.0188484088041454,0.008005559995762,-0.0039379730962201,-0.0143727495856378,-0.0135855741893529,-0.0103949628002879,0.0127521558405761,0.0160767424481332,0.0074268125645592,-0.0026039374455322,-0.0128604607162156,-0.0044081719586253,0.008021413634427,-0.006653263851545,-0.0016544665550099,0.005114165346118,0.0047865240267637,-0.0033228529992256,0.0041924286568301,0.0004735746827106,-0.0001421256455389,-0.0110701148896324,-0.0047945680336467,0.0073782116937146,0.009207277247438,-0.0001804364960267,-0.0049669631764879,0.0015133333258568,0.0011063040472582,-0.0039612653825123,-0.0052051316947196,-0.0043602334005511,0.0126592320741452,0.0090846233457169,-0.0089084276159612,0.0008996809003291,-0.0023789603385202,-0.0058542242820056,-0.0014264269559547,0.0014142334047545,0.0046117871523824,0.0043585391595679,0.0005090965579172,-0.0022948242015633,-0.0061192791634257,0.0128993185417806,0.006853025082265,-0.0153978107902063,-0.0345627879838848,0.0143726326758687,0.025877856831172,0.0097072549858239,-0.003556539275144,0.0001479526212863,-0.0014685102490739,-0.0149311725953287,-0.0113616460671409,-0.004958263804772,0.0075117185268424,0.0163442216544142,0.0132526121259384,-0.0010470293442108,-0.0154490393396276,-0.0050959015542181,0.0049285044968481,0.0041364782120769,-0.0004654778081674,-0.0138137290811705,-0.0112802435746888,0.0140450677373535,0.0179367619735882,0.0104512345323249,-0.0091772262292423,-0.0160060144691977,-0.0077153858104613,0.003420934240572,0.0072454630744695,0.0075455280242702,-0.0004770795261985,-0.0095076131461683,-0.0043955465482882,0.0096457269519694,0.0043867087166591,-0.0064223573711452,-0.0038000314324106,0.0025085279997616,0.0050513099203795,0.0023247638803965,0.000438228347064,-0.0032754093405303,-0.0122205651486124,-0.0064809452083568,0.0043648442727849,0.0160111612071602,0.0104361633985408,0.000987592494569,-0.0059136840466501,-0.0108669335574744,-0.0115686384235411,-0.0068877959402228,0.0043965166158933,0.0124659492555478,0.0143513585802432,0.0063513064118157,0.0006511091321113,-0.0122602855967332,-0.0156430063277424,-0.0084128418248121,-0.002900518743974,0.009611384044726,0.0173493539639658,0.006558375951222,-0.0043545799456008,0.0028142179137602,-0.0016384828885649,-0.0080020834800095,-0.0104828071651738,-0.0105402514122407,-0.0034113940844709,0.0103165907877233,0.0192942158513769,0.0165943071542,0.002079149032144,-0.0107862010851176,-0.016494776799338,-0.0159770140429016,-0.0063987974062661,0.0071988105071908,0.0043185169051718,0.0125193584334304,0.0153827113327287,0.0154567804294411,-0.0013862727099551,-0.0191372719192263,-0.0276962073135679,-0.0184788888367859,-0.000931477291684,0.0165979433463828,0.0283316572581955,0.0251219457713214,0.0076810641903235,-0.0178698671887607,-0.0271682013661863,-0.0176941126781766,-0.0033755822863684,0.0010163725382748,0.0071612564445277,0.011808991931558,0.0211786644873097,0.0170238206123971,0.0054138824294506,-0.0231865391358118,-0.0372910229521099,-0.0270613158957832,0.0201117243821036,0.0330180580306312,0.017666824613286,0.0006781872690003,-0.0169901343251927,-0.0136528452048236,0.0064015907399139,0.002740961519797,-0.0056360882777871,-0.0007968676024544,0.0046796573637702,0.0021218248751591,0.0021289114982243,-0.0013540171534439,-0.0040825307121589,-0.0010927019873848,4.024483189281846e-05,0.0012526546787302,0.0011064911271376,0.0054202788927977,0.003105795820701,-0.0064195408794262,0.001809961659358,-0.0050454024842971,-0.0218806236926876,0.0110435723297974,0.0219566180726129,0.0111392878084464,-0.0068081514636036,-0.0189654115729656,-0.0053605450649583,0.0040592816352146,0.0041929520670526,0.0016902105772243,2.261399636845231e-05,-0.002612815851704,0.004522893834104,0.0062537784915065,0.0029403101687069,-0.0021675580503688,-0.0079782536874226,-0.0091820597392175,-0.0063959929998841,-0.00602550377723,0.0075839574237217,0.0220475560359738,0.0168814050116919,0.0044761199241537,-0.0096837509250215,-0.0212165410516977,-0.0251932440367925,-0.0035254176701721,0.0109917920254932,0.0143567772357952,0.0032705666578017,0.0114820878964222,0.0132810997251765,0.006898533537426,-0.0103152342161105,-0.0203709285469629,-0.0208285260399589,-0.01612411719098,0.0022559313861706,0.028379083702061,0.024698009282242,0.0086199597810902,-0.0055162659133684,-0.0110987764980328,-0.0097108534984705,-0.0063502032901175,-0.0041430858243855,-0.0018058676437298,0.0015912575931814,0.0043864300175536,0.0047157086538989,0.0031351422728389,0.0057385793094899,0.0024239806898797,0.0013951441744204,-0.0008100349756967,-0.0116647486609067,-0.0169661957400846,0.0028759145240575,0.0084046243176232,0.0073918318651041,0.0035402923615208,0.0037129554245494,0.0006886393715646,-0.0049203633828181,-0.003265330969401,-0.0052343222334875,-0.0041628323470564,0.0037104174071415,0.0063322957533155,0.0041862736372473,0.0016441061787362,-0.0062192783755381,-0.0052360956490663,-0.0031176788733685,0.0069230462959206,0.0046237289983125,-0.0005079200450716,-0.0068059841038079,-0.0007989512392162,0.0076067804806823,0.0099451471626008,-0.0040095744047946,-0.0246846930796704,-0.0009085871859064,0.0047635544623142,0.0162748600778827,0.0080168092264769,0.001005385338115,-0.0072305719137634,-0.0082856224370686,-0.0074281576511252,0.0014542355153718,-0.0029896705321858,0.001839288321456,0.0171487181280933,0.0023014772431618,0.0021885165338831,-0.0043747896367269,-0.008842629127625,-0.008806999295268,-0.010104611664954,-0.0004476054943631,0.0089815011855635,0.0203825234017668,0.0246153857391033,0.0115083137650939,-0.0194420236709941,-0.0708929199797442,-0.0125081354339368,0.0182772361324321,0.0263946084192963,0.033702761217992,0.0335999435878016,0.0097588296315723,-0.0301712218063096
-0.0074745185390052,-0.0046595362678926,0.0003702578153527,0.0056160510223814,0.0088133192730625,0.0084259646498124,0.0044073479848767,-0.0016786911082099,-0.0072910286203187,-0.0100265283590124,-0.0086927213923862,-0.003833899167261,0.0025224650481787,0.0077636455520869,0.0122945423264332,0.0078405537017205,0.0026948746142215,-0.0035970133728664,-0.0085347258056499,-0.0101761062910597,-0.0079265835586302,-0.0027569538674042,0.0032391976189311,0.0102255977476148,0.0090202643044331,0.0066910495746686,0.0017005336227396,-0.0039746293198397,-0.0081234762546605,-0.0066656822710481,-0.0067903788908574,-0.0020765373917624,0.0030128379472419,0.0064913435256926,0.0071497808768781,0.0074734189536422,0.0010125671259777,-0.0031484332521622,-0.0060039447537423,-0.0066232598434252,-0.0049188467145083,-0.0016093312662309,0.0020829778703505,0.0048724038588243,0.0058394367584538,0.0047158193679193,0.0019505977783416,-0.0014434916675045,-0.0042200573691097,-0.005338583121665,-0.0043918660253314,-0.0018258620204531,0.0012264014397317,0.003484398575475,0.0041532827566142,0.0032606255241481,0.0014900620564758,-0.0003390533995532,-0.0017460353580488,-0.0001964447288361,-0.0033435044480819,-0.0036428651619716,-0.0031775968372407,-0.0014483868817071,0.0015235077600917,0.0047966183811481,0.0067366365180282,0.005874919677018,0.0019389251124507,-0.0036387851490125,-0.0082125015983287,-0.0092845828629399,-0.0059726976460902,0.000351378526386,0.0067059950934412,0.0100621983925158,0.00889174925506,0.0038357162558856,-0.0027706747956225,-0.0081040635995594,-0.0075912522132714,-0.0081555922158914,-0.0032628714025385,0.0026170111844152,0.0072830353858515,0.0090356690048599,0.0072435998652988,0.0025987911246068,-0.0030852359141268,-0.0075305540967584,-0.0088973681626626,-0.0065743214985383,-0.0015027427866309,0.0041538814884225,0.0079140891951896,0.0080993130337045,0.0046577195871455,-0.0007489440305286,-0.0055116236165195,-0.0073644861480842,-0.0055446165094752,-0.0011780588997717,0.0033525915763286,0.0057186542906327,0.0048806690768316,0.0015434717438216,-0.0023764133296329,-0.0048671560935547,-0.0023405252241192,-0.0025535267620064,0.0006998277732581,0.0033608868789337,0.0043304364517574,0.0033146614345574,0.0008032333176222,-0.0021857482413067,-0.0044737157025181,-0.0051118989617905,-0.0037159952988692,-0.000653165116358,0.0030121642158218,0.0058513184874661,0.0066080070372915,0.0047450385022326,0.0007574095152944,-0.0039220536806269,-0.0074269768351763,-0.0081927281171777,-0.0056422473054948,-0.0005431515884023,0.0051566577690275,0.0090390780552853,0.0092563489050623,0.0054631150847408,-0.0008539013473576,-0.0069216815677875,-0.0099360342429405,-0.0084374571240251,-0.003091367044696,0.0035639132240542,0.0083073233924182,0.0087976022105829,0.0047667886079172,-0.0017319008079001,-0.0071946280445792,-0.0083455263006058,-0.0039347977715518,0.0041309274098275,0.0108706765399458,0.009623148541338,-0.0055181203269094,-0.0051372789577306,-0.0253595055026629,-0.0037232013824903,0.0228440452626587,0.0157267935310811,0.00158347489795,-0.0076594503715663,-0.0028389241712705,0.0011588074359084,-0.0050393944423399,-0.015907543514101,0.0030035240810148,0.0034947357704231,0.0016353944785258,0.0099423164192063,0.0183934308257464,-0.0005753687376808,-0.0218240737475272,-0.010657069232278,0.0005789907411925,0.0083148174448718,0.010164434668431,0.0053924425912284,-0.0092372423394722,-0.0289695023802132,-0.0053640278879608,0.0350892156277821,0.024294183856687,0.0039262872319713,-0.0161913983792665,-0.0202055375800653,-0.0174910301227049,-0.0062741289312998,0.008113912013323,0.0160539118046197,0.0150114584881165,0.0092651729211891,0.0008826152570625,-0.0113289402413611,-0.0157690262155378,-0.0068808920612143,0.0017830644615688,0.0037312650884739,0.004951424013377,0.002035063013105,-0.0020023131080843,0.0038304112612243,0.0056051672064323,0.0017983281227479,-0.005260701811072,-0.0052657412280644,0.0013636315465232,-0.0011976073208538,-0.0021769180457389,-0.0030884483274886,-0.0048219525708125,0.0040740723837248,0.0085023577839424,0.0057230167439825,0.0050012966081205,0.0020672056853895,-0.0016069832043434,-0.01060545034557,-0.0149661246368237,-0.008689577366911,5.6447020184520664e-05,0.0107473107715753,0.0164242665039129,0.0134066740109282,0.0050698830238022,-0.0019177908814066,-0.0129535806773537,-0.0181642470236662,-0.0141173496204588,-0.0050980071296616,0.0063893414922713,0.0179487307324988,0.0172482350092113,0.0132179996171477,0.0012079953279779,-0.0083828416606094,-0.0180267686242443,-0.0186610672198907,-0.0106891162808771,0.0022195283596483,0.0091113513403735,0.0151850799379853,0.0171409224643478,0.0162611063587953,0.0036185984558074,-0.0185628281327174,-0.0285565722685439,-0.0260225611738779,0.0040810093679987,0.0231323358882798,0.0197540383019344,0.004707217284681,-0.0022094969506191,-0.0052386205908416,0.0053654684140507,-0.0036918353751102,-0.0095534585656895,-0.009835489186659,-0.0092367789790614,0.0066062254198921,0.0134309461463534,0.008000953391161,0.0040313175410536,0.0023633844656471,-0.0085986302760774,-0.0109172681021059,-0.0034247402032779,0.0014063177689808,0.0018089220389624,0.0046343101934379,0.010222856313333,0.0017874061463664,-0.0050973301446414,-0.0113531207509696,-0.0069570941039674,0.0031607253942176,0.0071599600067728,0.0041255181277321,0.0042999739768503,0.0066183288572571,-0.001945492698221,-0.0106724995465104,-0.0099354570714806,-8.796822767111645e-05,0.0011403663761359,0.0013473212864489,0.0067004672831432,0.0048072567519892,0.0056188531942984,0.0033319238544757,-0.0022724160937787,-0.0112255617720105,-0.0121244373089256,-0.0049998438755407,0.0042176097778356,0.0140507578023229,0.0091226605454565,0.0026239103041162,-0.0054088046387629,-0.0014173541827707,-0.0045450629339091,-0.0140724026268374,-0.003946607890029,0.0125352197954472,0.0113224174436026,9.81469711019779e-05,-0.0020352883415879,0.0001499667883541,-0.0041953406344853,-0.0053296300932854,-0.0011460646656091,0.0045436899550133,-0.000917073748646,-0.0019933570958348,-0.0043150850263833,0.0109756438066537,0.0091220719625879,-0.0016845874973251,-0.0068146888668648,-0.0065030101158246,-0.0037440606438496,-0.0019329144949826,8.703598222660917e-05,0.0052907288262998,0.004868044360817,0.0031052999928306,0.0048263575275089,0.0016640393334812,-0.0046126305939974,-0.0099796436398796,-0.0080539296046814,-0.0009572340039833,0.0038862026729398,0.0077026605375695,0.0064276586191831,0.0037022184485907,0.0015241319966915,-0.0044614000425417,-0.0080191088094639,-0.0057833039172092,-0.0019457556875939,0.0006361831072761,0.0057032822231583,0.0067264587381287,0.0046879006187276,0.0017178526798396,-0.0040926082906726,-0.0112026744785447,-0.0027642379646044,0.0011945386759987,0.0043330168926022,0.0035511890286082,0.0019945911900391,0.0001676804750089,-0.0011376585339308,0.0001136552337418,-0.000554660111097,-0.0023249124329182,-0.0043719075749357,-0.0010580619338929,0.0033243575576912,0.0041271806936132,0.0035049011057503,-0.0019908988314404,-0.0008204975568437,-0.0007439202918355,-0.0015078333313562,-4.30276163160552e-05,-0.0033905149631068,-0.0039299070638534,0.0006476387138926,0.0077623354394463,0.0076350049505635,0.0025790367971868,-0.005348332792489,-0.0058815374085441,-0.0056538400150158,-0.0038623704204349,-0.0003745000835617,0.0038775448210902,0.0071323026834416,0.0076231380461643,0.004595916983147,-0.0010669226943746,-0.0070463181833136,-0.0105847029580984,-0.00731023634249,-0.0022506238583296,0.0025144646563755,0.0087617953713429,0.0111545704316568,0.0085586201459237,0.0020358965926997,-0.0056248255798913,-0.0111076638338823,-0.0120023313274493,-0.0078654653939986,-0.0004351790624458,0.0071245736745903,0.0141080209868898,0.0111300701804307,0.0059078377088534,-0.0018220991784214,-0.0087624717295478,-0.0120046521562031,-0.0102889723876001,-0.0045006572847458,0.0027985882754577,0.0085587981399194,0.01057274366311,0.0083292655495043,0.0030453502959722,-0.0030260037734673,-0.0051011705262422,-0.009226577944763,-0.0076540122885188,-0.0036827238728062,0.001261458197078,0.0055640563676565,0.007832611520728,0.0072814399724852,0.0040319603175618,-0.0007997632682745,-0.0053765991757922,-0.0078083777243669,-0.0070041788171756,-0.0032779040819809,0.0017053904658859,0.005712899602319,0.0070545426500037,0.0053769234744089,0.0017020448615119,-0.0022301876231537,-0.0048515049111902,-0.0053826883923973,-0.0039523030480365,-0.0013209129119045,0.00152579044255,0.0037015700910646,0.004599013716463,0.003973854187262,0.0019915344376383,-0.0007711506454487,-0.0034262550727228,-0.0050145994884749,-0.0048456573067022,-0.0028121105920121,0.0004792702024448,0.0038606050878125,0.0060111982990778,0.0059706131625127,0.0035578405035911,-0.0004732571092293,-0.0046356309548628,-0.0072443963257965,-0.0071103597465284,-0.0040953479076303,0.0007496108638907,0.0055559405846425,0.0083678079335012,0.0079328537752531,0.0042537269721092,-0.0013165712680574,-0.0065297617779764,-0.0091522195744327,-0.0079860116844693,-0.0034951937886431,0.0023535139373322,0.0070160192984237,0.0085829641410438,0.0066236752973481,0.0022449714574465,-0.0025791443322485,-0.0059676826285933,-0.0068701669581472,-0.0052941381068894,-0.0020672249707008,0.0016078944562212,0.0045575337192529,0.005907261562745,0.0052505338935305,0.0027477099714428,-0.0008769867142515,-0.0044898504687772,-0.0068422575558312,-0.0044469989059732,-0.0044551439524693,0.0001265209604765,0.0054919289229702,0.0097784827646576,0.0108738764415524,0.0067572799725343,-0.0040944048521383,-0.0220730419602082,-0.0332032008719179,0.0111461339888818,0.021808845308284,0.0179688157415509,0.0076849938645076,-0.001721188589284,-0.0062400686266932,-0.0113543177297176,-0.0112413583077865,-0.0094984800406884,-0.0044488649578202,0.0073821842850228,0.0144423112974544,0.0178543211816817,0.0100107196935204,0.0002045280687094,-0.010482711251608,-0.0177533285133441,-0.0182919377703351,-0.011309991217934,0.0008417001353133,0.0158789614924027,0.020930307086213,0.0198661817243675,0.0101187572863447,-0.004507496379744,-0.0178607090108455,,,
0.0120612750670675,0.0056682176385625,-0.00302451061978,-0.0104651748699661,-0.013756378055661,-0.0117160266197689,-0.0052108274981375,0.0032410036298149,0.0104152300145317,0.0135766051337841,0.0115274558089523,0.0050994474387723,-0.0031535537120332,-0.0099746736756508,-0.0127258343884332,-0.0104593958194384,-0.0042817382182973,0.0031582420866385,0.0088359160791613,0.0106385976842291,0.0081843563024452,0.0028364332067238,-0.0030158783545177,-0.0070197100020449,-0.0077874054273786,-0.0053481771628773,-0.0010160507440122,0.003217136579217,0.0055189372981104,0.0049779866769185,0.0019976674133213,-0.0018597421494588,-0.0045597129546661,-0.0045697359462082,-0.0017048197581982,0.0026144824648479,0.0059600404125781,0.0061770584822553,0.0026932081507234,-0.0029548645808028,-0.0078089416089414,-0.0090863586433369,-0.0057754653744386,0.0007234780393594,0.0072938443306073,0.010722189029102,0.0093291070295606,0.0037580063207505,-0.0034226011641496,-0.0090188304193678,-0.0107078659330462,-0.0079972808603815,-0.0022579451302326,0.0040539007970976,0.0085002862610189,0.0095625148261882,0.0070498257175953,0.0020196793350199,-0.0036406417987673,-0.0078334476409494,-0.0089594230122572,-0.0065431147447644,-0.0015172390235865,0.0040532714947142,0.0077993299714741,0.0081079744299361,0.0049038199729685,-0.0002763074517216,-0.0050003833716624,-0.0071147416673321,-0.0057851245562481,-0.0018766715752754,0.0025181243946042,0.0051647041715019,0.0048372054948814,0.0019421781598346,-0.001726666094884,-0.0039969774175799,-0.003555061733732,-0.0007156752334617,0.0027379141537712,0.0045817421237861,0.0034728288228405,-0.0001975684728305,-0.0044259776617269,-0.0066530593006547,-0.0052000869109979,-0.0003424725715895,0.0055194822925784,0.0087086728471791,0.005859860074167,-0.0042508935393804,0.0074206427838029,-0.0029807743002933,-0.0101921219267389,-0.0101472345463944,-0.0072758410769699,-0.0002008575919004,0.0075756718325523,0.0119980448272035,0.0144807235779695,0.0080632138125913,-0.003091551769043,-0.0131558804346843,-0.0148027898996051,-0.0137814302219311,-0.004463863815816,0.0063223124478724,0.013916952481492,0.0152920914129574,0.0100755034936959,0.0004288896289701,-0.0074306389812048,-0.0097197085341495,-0.0110986594178186,-0.0087621641297377,-0.0045758575993482,0.0052303667028885,0.0120379050644451,0.013323814158159,0.0086861194706933,-2.892099851370813e-05,-0.0094969678792033,-0.0113887087910474,-0.0085014568324127,-0.0034451897676961,0.0017224758241558,0.006430459248457,0.0085156141629004,0.0076609727449667,0.002872516366997,-0.0039060045272426,-0.0087374664811327,-0.0040550702668192,-0.00326685617992,-0.0003867648482283,0.0009845631824861,0.0056825045408752,0.0047387081823827,-0.0008487231254776,-0.0007743469928261,-0.0001384707413394,0.0003002239751402,-0.0003871741735076,0.0020560718546506,-0.0046953660339563,-0.0081534872563996,-3.171217216356839e-05,0.0031684271032659,0.0067539132576166,0.0050675002670609,-0.0006039578067691,-0.0058852419861256,0.0020830266464883,0.0011827237537086,-0.0011468070708471,-0.0006493254691845,-0.0019269849404882,-0.0041716388092416,-0.0031694455465832,-0.0044341274954479,0.0076137470195774,0.0110427720066906,0.0050368945981708,0.0019029025580425,-0.0033036013944079,-0.0068551005676506,-0.0083735782194601,-0.0071528479615751,-0.0031579006309442,0.0032142026430171,0.0102977760973122,0.0101410588642782,0.0086507884426822,-0.0018399503826998,-0.0091729208626983,-0.0090902741327427,-0.0053759079855278,0.0012172624974033,0.001543834386272,0.0028144240413987,0.0004658749009221,0.0036356635491893,0.003746728878089,-0.0019574859916728,0.0034556845460321,0.0013185158872198,-0.0037514973014592,-0.0039802973739899,-0.0061620072954035,-0.0036846847074369,-0.0003809171872172,0.006541678237537,0.0073603506488001,0.0056962324232001,-0.0002201800876388,-0.0037100501420587,-0.0053489831858123,0.0010330241764344,-0.0025352366530518,-0.001295383536144,-0.0022300510865246,-0.0037230485558342,0.0037709802053761,0.0044424490674253,0.0035246503801605,0.0040384249176172,0.0043487894145499,-0.0013138458408355,-0.0059944466432899,-0.0044113386471103,-0.0073244406541145,-0.0057610702920933,-0.0053097630996734,0.0090514698626405,0.0124025431737011,0.012893555855131,0.0039515868690779,-0.0026554545985679,-0.0098934495661372,-0.0074796622538194,-0.0094569624140495,-0.0102977602920208,-0.0021642396614827,0.0088042771605878,0.0136926311929622,0.0147836376967871,0.0116374130758739,0.0005388982730026,-0.018638437240852,-0.0120857798675492,-0.0122501045043828,-0.0087201144797259,0.0057919425344694,0.0088566035170735,0.0123973769547758,0.0117415990192352,0.0005206308011727,0.0071764435757494,-0.0035547258915925,-0.0113209781930468,-0.0149380737176881,-0.0190667155696775,-0.0046816136554792,0.0039990856601602,0.0231518175163252,0.0272253676727556,0.0188979926261622,0.0019096803803844,-0.0231395648230317,-0.0357565835881317,-0.0250076969579795,-0.001801102578997,0.0118054204883016,0.0282891809713964,0.0232998476849431,0.0154333924660852,0.0020627132872454,-0.015899877262126,-0.0216000120736621,-0.0215060184098566,-0.0158643489523316,0.0023360016074792,0.0130015849289884,0.0176052638978123,0.0205451126727717,0.017361721587525,0.0050928350069226,-0.0143207133277358,-0.0210950803468129,-0.0249086237065262,-0.0177571473580072,-0.0022302484430996,0.0168409513380725,0.024029328050035,0.02458419409693,0.0125306385218085,-0.0033519006562522,-0.0170729884660585,-0.0183266224287837,-0.01702464073127,-0.0091098333239346,0.0042829329335215,0.0064346055889413,0.0054385025487567,0.0171002452218753,0.0169945744566816,0.0088518812405068,-0.0033833618516872,-0.0129488147905517,-0.0232700631979792,-0.0209137783298662,-0.0030178208038089,0.0053670774846191,0.0149602185514393,0.021065701807,0.0170632403097746,0.0077915902355169,-0.0078105738970632,-0.0194489328725524,-0.0222344993065195,-0.0147044316408108,0.0022488864138937,0.0130722616539495,0.0157031869324912,0.0131488665251451,0.0086885456395699,-0.003410852195143,-0.010888904201733,-0.0103804266650971,-0.0091540153477374,-0.0058898541982272,-0.000164273282725,0.0086021461866987,0.0135522191487035,0.0092986954626063,0.0002016914951326,-0.0024160490235913,-0.0079315938660935,-0.0091220511295435,-0.0101624479666203,-0.0044597150107589,0.0062043218149554,0.0173593296531865,0.0127222805960448,0.003475087233269,-0.0053120461596239,-0.0168209986044781,-0.0132783577492134,0.0014173568998289,0.0051316140552569,0.0053947370908717,0.0019892620247988,0.0037982586459046,0.0060952771650554,0.0053111069217776,-0.0003577600352953,-0.0118603483592311,-0.0106870658209566,-0.0052796640279519,0.0022784827404421,0.0017668520327592,0.0086066240534068,0.0112568225977722,0.0033551221399882,-0.003060366621359,-0.0043984264350365,-0.0032315358213975,-0.0049425883722542,-0.0040831448961925,-0.0043214055603855,-0.0031033473470659,0.0052721966654297,0.0109106787746378,0.0107788994613703,0.0045937805172443,-0.0039068876038657,-0.0096769016990834,-0.0092240031620771,-0.0066985222474051,-0.0030930401794872,0.00429757318095,0.0092981813385149,0.0056123022215655,0.0033831256985168,0.0016944013111064,-0.0004526381412834,-0.0013397521460832,-0.0030049447409936,-0.0069373462352795,-0.0093225248213844,-0.0045486952980091,0.001980090388039,0.0084203231546052,0.0121871387703184,0.0111332107845133,0.0047286584338665,-0.0053922409999407,-0.0157984581411911,-0.0126285867061959,-0.0051695753462503,-0.0002581047461708,0.0016108138151331,0.007970630602689,0.0143095566068087,0.0134019340085711,0.0059190098980771,-0.0048396983179293,-0.0142304669244976,-0.0180643536708868,-0.0143382783591262,-0.0042225979750885,0.0082183617525771,0.017635584390123,0.0197452489127243,0.013345376771804,0.0009832713405763,-0.0120982807858527,-0.0177716975047893,-0.0200390602827151,-0.011559530701353,0.0039892929532893,0.0135197574878015,0.019407931940084,0.0167191651731762,0.0067858076695314,-0.0059089789441161,-0.0157542621926767,-0.0185103057863316,-0.013148599216407,-0.0022182664220708,0.0093718163863832,0.0165542995013084,0.0163019812989105,0.0088931529646343,-0.0022709529401454,-0.0122021797901371,-0.0165396596603773,-0.0134652595351166,-0.0044759098915077,0.0063236278254991,0.0140917940675449,0.0154451418778032,0.0099684100397035,0.0003292433991197,-0.0090468635238477,-0.014075147584076,-0.0128470385844847,-0.0063380090429595,0.0022703773064773,0.0092120597637403,0.0118353116843454,0.0095730676669275,0.0038588150934173,-0.0027577512497001,-0.0052506302015057,-0.0095408054098378,-0.0079084993092591,-0.0038415719975339,0.0009761770320805,0.004811821604196,0.0064989123909622,0.0058054992145848,0.0033838531266136,0.0003512443460431,-0.0022376490641605,-0.0037447833214307,-0.0040176680065286,-0.0032549621612122,-0.0018226679061684,-0.000124945397267,0.0014550837911624,0.0025869436731857,0.0030390768567911,0.0027368013697157,0.0017867037713129,0.0004322250311564,-0.00103485547166,-0.0023356336640057,-0.0031962049334165,-0.0033211404157527,-0.0024571724078844,-0.0005916672181815,0.001830459390661,0.0038995515665042,0.0070691856357737,0.0031960465114999,2.9563801841239333e-05,-0.0036619573655401,-0.0060798923654071,-0.0058484272073995,-0.0028560152641205,0.0015707372690076,0.0053048188078188,0.0065170458731637,0.0046170584161663,0.0005375789699456,-0.0037508832924978,-0.006209390205027,-0.0056942415621326,-0.0024712649489571,0.0019318379515355,0.0054444341091886,0.0064014722572314,0.0042929666995833,3.956820908364602e-07,-0.0020818825061376,-0.0074009178191795,-0.0071657116661433,-0.0038883633237196,0.0011258401670653,0.0057930438067769,0.0081028533518276,0.0069879062080729,0.0028341638987259,-0.0026296813955117,-0.0070654575847571,-0.0085679205427555,-0.0065179666723067,-0.0018349018570457,0.0034717219362541,0.007207785065394,0.0079249565259734,0.0054717447860488,0.0009689000443771,-0.0012367284460678,-0.0068807878090672,-0.0074522336246605,-0.0054464342120985,-0.0017400014452987,0.0022700276084061,0.0051688551568249,0.0060253568803826,0.0047047576332724,0.0018651330595576,-0.0013516525292887,,,,
-0.0021335498626685,0.0027978710112303,0.0059807176608397,0.006234180373873,0.0062580016714731,-0.0001443164360309,-0.0037752461402701,-0.0057409550493532,-0.0029101130795011,-0.0030874660162332,0.000161625245976,0.0029863389596451,0.0042808687707553,0.0035722850755878,0.0012016433903082,-0.0017645160837003,-0.0039334286577457,-0.0041984911884586,-0.0023065196990464,0.0009268759452822,0.0039243345804264,0.0050856720166911,0.0036235158366247,6.153122266144454e-05,-0.0039213145663366,-0.0062941140263889,-0.0032560736924804,-0.002518792376095,0.0017404917091101,0.0072914957837466,0.0050345365920365,0.0023102340465312,0.0004942930360176,-0.0032245854127687,-0.0070208062992417,-0.0053322066969274,-0.0015409129061209,0.0025214302803278,0.0049776038787622,0.0048236677937031,0.0048846889322887,-0.0009702338040713,-0.0036313715185536,-0.0045356521822474,-0.0035541855725044,-0.0013780136967571,0.0009574078032789,0.002588195369246,0.0031019110650429,0.0025272452057314,0.0011720684325594,-0.0005189986892148,-0.002031034979341,-0.0028406404171295,-0.0025618762227429,-0.0011644381346034,0.0008731143950134,0.0026484787259363,0.0032191562639658,0.0021296583140313,-0.0002331292095911,-0.0027249232897211,-0.0015066735298892,-0.0033226809693064,-0.0009942940861284,0.0017336511633354,0.0033782120866334,0.0030260642401395,0.0008516007544366,-0.0019434100772898,-0.0037769040290656,-0.0035786855312246,0.0010735694181885,0.0014451179685161,0.0033360867474505,0.0031187657136673,0.0009356686069632,-0.0019082557251779,-0.0037538753031996,-0.0035742086848044,-0.0015346135539166,0.0011956482084799,0.0032046276623406,0.0036335498351452,0.0025119974576732,0.0005265413834169,-0.0014856179493167,-0.0029233974565867,-0.0035011968755043,-0.0031206335740092,0.0007117665720761,0.0002698775314861,0.0024604145121326,0.0039173765363228,0.0038624512432236,0.002042626655869,-0.0009972582554599,-0.0040205082192529,-0.0056078324496929,-0.0048421448299353,-0.0018206738342448,0.002282459619124,0.0056722315238301,0.0067330663827401,0.004818024662799,0.0006352448850997,-0.0040032126396277,-0.0069965174507383,-0.0069539771610848,-0.0038781941030694,0.0008229064813169,0.0074979800368513,0.0067451898720051,0.0052941613495126,0.0013816475769379,-0.0031234233874707,-0.0061678110426407,-0.0064837375391304,-0.004082979525041,-0.000109698606743,0.0037698685698733,0.006079609365743,0.0060330192901845,0.0036987972491663,-0.0001061377385825,-0.0040762632899109,-0.0067656839004395,-0.0070191858107253,-0.0044365912772911,0.0003014459695157,0.0054764477179412,0.0088634086257922,0.0086356610896386,0.0043030002599325,-0.0002901725760072,-0.0073136993869547,-0.0111461197882528,-0.0123522516186024,-0.0036638932036159,0.0025305283550109,0.0102014453691057,0.0137265484568675,0.0116826537069841,0.0048043445970401,-0.0044318141043614,-0.0127965614742074,-0.0174612430020374,-0.0120460164592906,-0.0018606263394814,0.0082783314564525,0.0148888936071674,0.0143850320520655,0.0094623472101432,0.0030550078876796,-0.0067268532049967,-0.0153626602039563,-0.0161042764104852,-0.0088576001283101,-0.0037749822945527,0.0079339531081834,0.0142024461842351,0.0157978908458583,0.0135308368040328,0.0013136771645235,-0.007156010009227,-0.0176597566661825,-0.0179348411806624,-0.0079442872705586,-0.0005180527844262,0.005234417386511,0.0153887427231464,0.0191001871793844,0.0106287175589655,0.0006199341615716,-0.0120951887215209,-0.0149052291459765,-0.0141400261259713,-0.0086155545811405,0.001058740094412,0.0087390946743664,0.0137103878765535,0.0147616584029004,0.0078900173215199,-0.0038661207486982,-0.0117590317584716,-0.0125026529043075,-0.0094175115548784,-0.0010047834855626,0.0022577994230774,0.0082378868478979,0.0137951676297119,0.0060031185584889,-0.0040859096437628,-0.0083608233176703,-0.0054369498755265,-0.0021655044376167,-0.000374433937654,0.0010526304762124,0.0043932906122458,0.0020699556295419,0.0019950876509405,-0.0013592493546694,-0.0004872224498915,0.0010931768519125,-0.0026586311742814,-0.0058334657910143,-0.0006702203424963,0.0029886529211499,0.0042202235741541,-0.0030282320060094,0.0024028546612081,0.0085996055581037,0.0049561772151779,-0.0070393480061641,-0.0114019085943755,-0.0105440558897209,-0.0026638551855213,0.0083732284205799,0.0089324253766963,0.0101891469621793,0.0075877998109508,0.0003028072826484,-0.0101721597684697,-0.0134516849917398,-0.010524073681892,-0.0007138381072913,0.006692584461032,0.010974414641542,0.0082030054362645,0.0029800763802004,-0.0024588374991584,-0.0050071998625567,-0.0041780163400458,-0.0033705399010338,-0.008880248372678,-0.0003718851765046,0.0143047368141952,0.0081857994144813,-0.0011649935643451,-0.0030872543441231,-0.0099946751653673,-0.0076478459313674,0.0047525859768581,0.0069474424229146,0.005674725940393,0.0052269061976079,-0.0011911432272718,-0.0088419836310351,-0.0051815479925844,-0.0090215596285669,0.0038498887131253,0.0068298551734896,0.0089221914317934,0.0032969054987342,-0.0009623422962147,-0.0021857444265116,-0.0068751138825433,-0.0123224549627141,0.0031689292789616,0.009955014956893,0.0052541643235457,-0.0038256858922048,0.002105867724826,0.0012781615202929,-0.0035764122301643,-0.0054636761572205,-0.0029226881919577,0.0054080623548723,0.0022711154412653,-0.0001026606717656,0.0045562854228419,-0.0018650349206159,-0.0038374445208403,-0.0014672526075248,-0.0004220879432305,0.0002561403969106,0.0022472124545772,0.0032215430074185,-0.0012812520034666,-0.0010149501192946,-0.0006429483293663,-0.0034592045335385,-0.0031629000307408,0.001962308476417,0.0075345447733992,0.0027701565855434,0.0018933118043192,-0.0006019864322218,-0.0067600989967553,-0.0075778437463409,-0.0025694758208646,-0.0012344858235343,0.0023638142923357,0.010365362789675,0.0115993346025289,0.004968751367944,-0.0056502844723329,-0.0144544118159162,-0.0087972286827403,-0.0038638425425779,0.0015284944841587,0.0054327493408154,0.0086083370811744,0.010753114905568,0.0031101366602166,-0.0027338882843526,-0.0098830835651956,-0.0123400224538989,-0.0027729235651153,0.0058021531389627,0.0050656752928407,0.003643612858981,0.0015590210396613,-0.0005599642794946,0.0011813800929547,0.0002698524525356,-0.0015532931874925,-0.003225849477746,-0.0067818642473579,-0.0011086692834659,0.0067483462909487,0.006187629735868,0.0009438312542469,-0.0027899880263927,-0.0045216829433469,0.0007033045144387,0.0003966581620129,0.0008202964527658,-0.001866781283872,0.0007873091236707,0.0033347369029007,0.0011876513963554,-0.0049017256024761,-0.0016874772503075,0.0001053203030553,0.0016686539911314,0.003432151371222,0.0026144114638895,-0.001960442102029,-0.0019613336134043,-0.0033925016784006,-0.0016551149898699,0.0013569895546983,0.001533464435667,0.0020429815249821,0.0004347314473545,0.0011833645363965,0.0011203982191237,-3.1319731857024666e-05,-0.0018446736544701,-0.0033109189683562,-0.0033912681150064,-0.0017000843028572,0.0011308420526665,0.0061842206792114,0.0044860735661527,0.002866902947133,-0.0005281602224363,-0.0039845020426289,-0.0056520435051626,-0.0045974665089142,-0.0013397350669656,0.0024382777714567,0.0048294682252813,0.004744918752247,0.002460855391966,-0.0006223256690153,-0.0028330794919597,-0.0031801390954017,-0.0018762823324213,-0.0001921883263343,0.0002339616765334,-0.0017165491164444,0.0037989727021576,0.000779575887253,-0.0015096338257144,0.0032530269632836,0.0014519098070274,7.484429965676378e-05,-0.0044548881382103,-0.0038884164663602,0.0004715532457659,0.0029554390486886,0.0033184890759795,0.0018231572311157,-0.0007295067350805,-0.0031150099327154,-0.0040829882029273,-0.002933267443838,3.460558301053032e-05,0.0059918336272429,0.0055670388227274,0.0047507963582664,0.0008626822710238,-0.0045224015696606,-0.0086176240788899,-0.0088176203996476,-0.0042764593623325,0.0032707023597438,0.0101111370931152,0.0124403601529347,0.008532067150724,-9.523319155190138e-05,-0.0092813725104435,-0.0143383885494322,-0.0125242362204411,-0.0045154056248825,0.005903912740589,0.0137322833832732,0.0152075118828953,0.0095935474112615,-0.0005271971435778,-0.0105128081370592,-0.0158113552455385,-0.0139990432000347,-0.0058342675377057,0.0050812894320638,0.0138720641216646,0.0165386564344288,0.0117775087679542,0.0016424534801207,-0.0093174947171776,-0.0161164407530143,-0.0156539758680215,-0.0081854460344684,0.0028011067511725,0.0122648910766092,0.0160202394286087,0.0126635168460837,0.0040744614283256,-0.0056772993068642,-0.0123586770106071,-0.0134649330060165,-0.0091068017237443,-0.0016257988292189,0.0056953399263365,0.0101062298767925,0.0103737787209883,0.0069659272987664,0.0015521721983094,-0.0038032805300097,-0.0073808998531582,-0.0082634058956162,-0.0064631430719824,-0.0027729852798878,0.0015548798936784,0.0051882222199901,0.0070674265733077,0.0066793735672023,0.0041994420268799,0.0004417397051623,-0.0033977559626114,-0.0061274501303754,-0.0069278582641971,-0.0055684544074655,-0.0024338708411521,0.0015889119519983,0.0053009265062557,0.0074608884800925,0.0071631824519311,0.0042584545131724,-0.0003993719206919,-0.0051248612763969,-0.0080424444062799,-0.0079341976229856,-0.0048388862884006,-4.868854422705144e-05,0.0045068139106974,0.007147554178678,0.0071275955130629,0.0048007153434652,0.0012704721407348,-0.002200957561163,-0.004683263911304,-0.0057645972473758,-0.005450330189484,-0.0039430118453823,-0.0014920009985102,0.0015888880544909,0.0047758585975498,0.007222171910755,0.0078700853954075,0.005873989475703,0.0011993240558858,-0.0049550876994318,-0.0103008185046021,-0.0123107866740259,-0.009475105910739,-0.0023013473829611,0.0065898131663658,0.0134783953339199,0.0152363676681362,0.0108384746590055,0.0019067206214141,-0.0079754963048329,-0.0148151688761981,-0.0158891494278512,-0.0108277300722238,-0.0016909814156937,0.0079338525325003,0.0143908113428825,0.015354132815507,0.0106355326612392,0.0021515283346578,-0.0068712749602262,-0.0131241853793806,-0.0144230987038939,-0.0104632080024598,-0.0028651070798706,0.005479630070202,0.0115051009807248,0.0131061352896076,0.0099009595288139,0.003331734907767,-0.0039585474938541,-0.0092382353344614,,,,
0.0047984502659255,0.0014403219021535,-0.0029657045445053,-0.0068307066563598,-0.0085032126456712,-0.0069988240078575,-0.0025493677181089,0.0033383512169482,0.0084029410295222,0.0105325204058399,0.0086634825716285,0.0032793341073858,-0.0037073811161439,-0.0096461743316496,-0.0121497616517105,-0.0100371747585098,-0.0038679904526159,0.0041585102895915,0.0109557055419225,0.0137227227641297,0.0111067000591222,0.0038692742313224,-0.0052734028947827,-0.0126463203494631,-0.0150983223036816,-0.0113781702907464,-0.0027913824861366,0.0072194394420974,0.0144657001335501,0.015802909386867,0.0105248644573458,0.0007261121690846,-0.0095396000336895,-0.0159478373610412,-0.0157285039493074,-0.0088657701715658,0.0018392643650268,0.0119003241011648,0.0170302930571707,0.0149901020728525,0.0065892925759824,-0.0046297144696287,-0.0139095200151665,-0.0173332719401331,-0.0135024033838213,-0.0040975318075876,0.0068966673609093,0.0149198114785061,0.0167436009924957,0.0117595138649131,0.0021467038056011,-0.008107723304806,-0.0148960849379748,-0.0156549915247733,-0.0103072927345189,-0.0011410343190214,0.0082170041080414,0.0142280463316112,0.0147149099094117,0.0095931387735079,0.0008734944767247,-0.0080695800252922,-0.0137619699730488,-0.0139966695742042,-0.0087517782309593,-0.0002271310142938,0.0080714478135601,0.0128254150381835,0.0123061129449535,0.0070494904157065,-0.0004897943789787,-0.0071179598755237,-0.0103401420115996,-0.009364992271151,-0.0052178313650214,6.417884924891898e-06,0.0042553853256916,0.0063635040932223,0.0062599479324788,0.0046140355181508,0.0022813342497703,-0.0001001988948658,-0.0022193742694521,-0.0039574852557858,-0.0051589945899404,-0.0054782806192464,-0.0044420312077436,-0.0017572546225958,0.0022804589199119,0.006560169732114,0.0093645865815669,0.0090529102848593,0.0049575400841952,-0.00197536768274,-0.0092459692197201,-0.0112228088594998,-0.0131136042192805,-0.0072046249709386,0.0018812192563841,0.0105510239103457,0.015288674511214,0.0141636404417927,0.0076098238859653,-0.0018444890741627,-0.0106781212943286,-0.0157316632872746,-0.0152449724462515,-0.0093090623860905,0.0002241465975575,0.0102327947944896,0.0171485095935516,0.0180671607579217,0.0119401896732095,0.0003869789528139,-0.0124318419134127,-0.0211766265273572,-0.0215968301933219,-0.0102316757190335,0.0021500569529243,0.0166526382462365,0.0241275282793083,0.0209111129426072,0.008222448173217,-0.0082880071803186,-0.021171318187111,-0.024701362669218,-0.0150236195362193,-0.0031505931976984,0.0118775361791124,0.021141585115487,0.0211321684943807,0.012431504640036,-0.0009506846457079,-0.0135167269698654,-0.0205444516398981,-0.0172768935460096,-0.0095216754109753,0.0043017794338209,0.0125410573836147,0.0159818838420796,0.015250095018066,0.0084276312190671,-0.0017335108177971,-0.0114195160720918,-0.0145980831225219,-0.0142161802053606,-0.0104198041398688,-0.000499719646054,0.0094297838248992,0.018164628080075,0.0156489343136631,0.0089280455660045,1.8075923734157137e-05,-0.0097341684874721,-0.0156745150786256,-0.0148161869777977,-0.0113319394219315,-0.0005172664988674,0.008139911265046,0.014881409906582,0.0169104126358383,0.0144822015855074,0.0015096017257771,-0.0125914953658055,-0.0164592629755557,-0.0182608995938608,-0.0094213511738171,0.001759088193969,0.011184460344829,0.0156538830290004,0.0139816684806484,0.0072833671890504,-0.0016036303221599,-0.0092683770690616,-0.0129882071133245,-0.0116689792234662,-0.0061656321542848,0.0011204175979852,0.0072411054776694,0.0124115879215286,0.0083953018752435,0.0037015869683829,-0.0019511053921557,-0.0061828193890507,-0.005024825375218,-0.0059804681610013,-0.0027953136705844,0.0003834010175474,0.0023795569956408,0.0028870999352167,0.0022903380529244,0.001123869136818,0.0044079291655124,0.001749909331753,-0.0030060716728829,-0.0055798584120747,-0.0002678575729244,0.0029513851166352,-0.0004829841227621,-0.0038946414986799,-0.0028105575335205,-0.003880646372085,0.0047302265987666,0.0064046950238217,0.0076292352854756,0.0019381302058409,-0.0014087920004441,-0.0054839398019306,-0.0091469123039297,-0.0054952729529364,-0.0006658315849287,0.0031701808649446,0.0068608289290115,0.0070491864152008,0.0041187687256841,-0.0004265890061832,-0.0045274151787806,-0.0064021687742338,-0.0053107981468862,-0.0018874820712972,0.0021323251141763,0.004690211527219,0.0043759874021501,0.0036716005248462,0.0014506826558888,-0.0023303223233779,-0.0082893237452105,-0.0035512050437674,-0.0015291385661814,0.0031339297502128,0.0057229837739779,0.0050964919764511,0.0017663257738975,-0.0024000221509568,-0.0051793721233952,-0.0051538111466509,-0.0024200062487565,0.0015029393457466,0.0044976471390145,0.0049752376247152,0.0027199092956126,-0.0010087595355446,-0.0041832441042567,-0.0026418003318666,-0.0035136617458992,-0.0003668759758885,0.0025050210398976,0.0061106110347172,0.002450151968149,-0.0003475462724877,-0.0033432375065588,-0.0049401617093373,-0.0041558896592291,-0.0011570494747009,0.0052204958000784,0.0055141599355655,0.0055788727522558,0.0025246375007015,-0.0024168935974101,-0.0068829888753326,-0.008505227205877,-0.0061232763229891,-0.0004801223777564,0.0059910452474284,0.0102408482845056,0.0100527278094658,0.0051725378696597,-0.002444369166601,-0.00942771927457,-0.0125049644161931,-0.0100589004977037,-0.0029893235419197,0.0055935796510759,0.0117805313323473,0.0127378770887104,0.0081013983007517,0.0001361776976817,-0.0074510460080935,-0.0114035038080386,-0.0104540850578317,-0.00568866465014,0.000349640541153,0.0076332795900411,0.0097470493300066,0.0066046193012526,0.0039981027801323,0.0004799747705569,-0.0030453939870111,-0.0058631022869835,-0.0072802696616508,-0.0066201775796079,-0.003575422303203,0.0012918558015899,0.0063734297118498,0.0094972071864185,0.0089520829323597,0.004506661693016,-0.002221685612427,-0.0083653454458833,-0.011133157199275,-0.0091794454666982,-0.0032828167480433,0.0040127043515931,0.0095791771902724,0.0110992413038999,0.0080271913537576,0.0017399975046192,-0.0051151296369896,-0.0097540367760251,-0.010390586589237,-0.0069195002110035,-0.0008857525460327,0.0052239755893064,0.0115233362729203,0.0091212969008779,0.005568510261201,-0.0002185136779154,-0.0060207184806492,-0.0096445860214752,-0.0096731362100807,-0.0059340352712057,0.0003715969569017,0.0069312432586415,0.0110387279561361,0.0106842965526053,0.0056214521680024,-0.0022090602156136,-0.0093497609473865,-0.0124417476371217,-0.0099645564139339,-0.0030772623720151,0.0049670966106093,0.0104947180823323,0.0112089220402194,0.0071599012318695,0.0004891730924262,-0.0057632566445201,-0.0090909259534607,-0.0085090332445958,-0.0047410351357148,0.0003412036890435,0.0046562650086576,0.0067592837149367,0.0062520806356871,0.0036928403751652,0.0001936260393545,-0.0030314419329112,-0.0050071234841485,-0.0052069018694154,-0.0036617843809775,-0.000958524138424,0.0019197142320772,0.0039226154257176,0.0068239977601317,0.0029870530998997,0.0004213366584846,-0.0023665471848763,-0.0042524088577271,-0.0044912787465552,-0.0030502114814891,-0.0005785304940755,0.001947533934181,0.0036698536760767,0.0041247223329078,0.0032679704922837,0.0013664527901222,-0.0010872007616057,-0.0034056583849042,-0.0047902025608969,-0.0045719678120779,-0.0025633128509874,0.0006968983367319,0.0040293734376553,0.0060679884623139,0.0058725638389509,0.0033784820134922,-0.0005506261314568,-0.0044803638293698,-0.006976901190838,-0.0071211818922569,-0.0047826823149426,-0.0006275830730162,0.0065452523985892,0.0075754249940452,0.0084127251551608,0.0058058714029968,0.0003687003062083,-0.005912112794615,-0.0103735528084805,-0.0083580052905234,-0.0068532019270205,8.161654675091844e-05,0.0069614287788198,0.0107804274411051,0.0099386579757327,0.0049762215308182,-0.0017563800554506,-0.0072996181900668,-0.0094932072642644,-0.0078604746958511,-0.0035858280395967,0.0012822480662413,0.0073693188280128,0.0061732023439365,0.0052022637618714,0.0026941256415276,-0.0003535990720949,-0.0030747369493143,-0.0023744362322605,-0.005399129361982,-0.0044944221376672,-0.0022535842429399,0.000814163955404,0.003698335565289,0.0051864763483928,0.0045283040536985,0.0020193215419786,-0.0010258130686768,-0.0030336784409088,-0.0031816960093899,-0.0019055127869171,-0.0004996676752768,-9.606075476942876e-05,-0.0007803014410502,-0.0015124101448247,-0.0009427127878118,0.0014340556748061,0.0046248621055773,0.006535184901783,0.0052708096886813,0.0005441705879875,-0.0057714879414772,-0.0104159714013165,-0.0104965634779712,-0.0052367750502705,0.0033204465818874,0.0111357842487406,0.0141637307907552,0.0104971630408328,0.0015258647936785,-0.0085696121020993,-0.0148286790386669,-0.0140480827560724,-0.0065062969787071,0.0041051527974518,0.0125623293458886,0.0147920345919869,0.0098963426214985,0.0004694577638771,-0.0088496685808836,-0.0112304675078321,-0.0121928705309733,-0.0053551488084426,0.0033566285862213,0.0099449467988652,0.0116261202976172,0.0079545153156395,0.0008919252707202,-0.0061739112282894,-0.0100245848243192,-0.0090895043376956,-0.0041034654493986,0.0023617258457109,0.0072223057705451,0.0083765498496166,0.0056332880429915,0.0006540827895337,-0.0040097998260775,-0.0062509958061882,-0.0053983249932768,-0.002366389501874,0.0035207807727002,0.0030459366002766,0.0029209500828093,0.0010862170905503,-0.0011340840956092,-0.0023274751495509,-0.0017871181541547,0.0001132509178915,0.0021482758965474,0.0029540317959902,0.0018447531364836,-0.0007225705862128,-0.0033277794708022,-0.0043623118312659,-0.0029965833079248,0.0002261997034193,0.0035818533447199,0.0051189022652365,0.0038525449512988,0.0004459039594832,-0.0031148474677681,-0.0047084120854335,-0.0034020398480027,-6.563916024043287e-05,0.0031387695782166,0.004106445490411,0.0021499659103436,-0.0015052832577618,-0.0044513586065375,-0.00462430237607,-0.0016507143502643,0.0028578806357428,0.0062386749620909,0.0063341406120704,0.002737951527983,-0.0004581426168935,-0.0080029286621469,-0.0073835806129342,-0.0075469391858537,-0.001894276656604,0.0046521590206923,0.0092591378390667,0.0099310045744724,0.0063726048151609,0.0001041493685872,,,,
0.0062732588616056,0.0101244230383314,0.0101874133535157,0.0064269569212558,0.0003139468490564,-0.0058457594697065,-0.0098855010648408,-0.0105475814757064,-0.0077424444209581,0.0001133595758718,0.0038829691832156,0.0090338061988693,0.0111433251302904,0.0090958565904381,0.0032324864971455,-0.0044393601237766,-0.0108170483777396,-0.0129981990584854,-0.0097288572015366,-0.0021993785962557,0.00635974625069,0.0121742933492122,0.0127411970281142,0.0079770282712299,0.0001287448639115,-0.0073927846078892,-0.0115654411845189,-0.0109537466843178,-0.0061250550651422,0.0007503618234138,0.0068643474185473,0.0099053007575128,0.011415678590002,0.004527124804001,-0.0014373332056502,-0.006723142903597,-0.0094633513157676,-0.0087723608052791,-0.0049410140036938,0.0007130025038838,0.006217704930752,0.0095137207935582,0.0091829036972135,0.0051236588370144,-0.0012021322727691,-0.0072223306313792,-0.0103173956313703,-0.0090272017185479,-0.0038032030157115,0.0031026949897186,0.0086129586647071,0.0102375381477492,0.0072586625782832,0.0010944584893175,-0.0053672004357953,-0.0091521124408421,-0.0086120151617279,-0.0041662973757905,0.0019688912085764,0.0068904948090942,0.0083876517872164,0.0059294152422826,0.0008286169948506,-0.0044427690553825,-0.0074295319139565,-0.0068126816655263,-0.0029816528986678,0.0021787578400321,0.0061856147319483,0.0071369725718809,0.0046254719314117,-6.62512532515352e-05,-0.0046096623669387,-0.0068033997169558,-0.0056679563025594,-0.0018890452920108,0.0025996651175762,0.0056341738685584,0.0058830756731884,0.0034239470147422,-0.0004078301105138,-0.003756325436614,-0.0051555275599272,-0.0041658455329261,-0.0014737123460948,0.001532519954554,0.0034654740914042,0.0035777118232547,0.0045329261491397,-0.0003065413647011,-0.0023766326199753,-0.0033742254991412,-0.0030335074796709,-0.001660437369541,9.159973488781484e-05,0.0015756545417881,0.0024142858529595,0.0025315196296518,0.0020001432594727,0.0008978834541934,-0.000665905618587,-0.0023844697567163,-0.003655613697293,-0.0037452130730505,-0.0022029918227198,0.0007116029484383,0.0039145616483373,0.0058682865705413,0.0053268154027352,0.0045678648734304,-0.0028346007501102,-0.0073627385825533,-0.0093762740414767,-0.0051201666998907,-0.0024867440666793,0.0039827115066796,0.0089838734513826,0.0102323054030474,0.0069573329198858,0.0001817734846055,-0.0077480595387565,-0.0092051827670594,-0.0070370573437362,-0.0055594133698778,-0.0009032930799273,0.0048422013873357,0.0093887087947106,0.008611029501474,0.0042180867734103,0.0021478590396812,-0.003110966989913,-0.0093532309075009,-0.0102588207887708,-0.0085095707133429,-0.0006928181171751,0.0087585718439921,0.011257218265584,0.0088851569500865,0.0051049925626716,-0.0034663672611952,-0.0083644586327356,-0.0116581016082421,-0.0092573017253973,0.003039139932102,0.0070714953084887,0.0074813388954372,0.0061273277955219,0.0007821733222737,0.001855081500573,-0.0039678280695637,-0.0054953326878441,-0.006914880915004,-0.0060432943897464,-0.001989443588553,0.0080942864997888,0.0099672628218886,0.0076038443414035,-0.0008284365932152,-0.0006910582379522,-0.0034612406488367,-0.0137341817768723,-0.0058830552154097,0.0020986171178321,0.005714425027133,0.0069771233007064,0.0034412053416624,0.0018570504271336,-0.0017985645208201,-0.0028397494434689,-0.0015102560790746,-0.0019858874463898,-0.0026428271955368,-0.000289924427485,0.0007873851497541,0.0020535628086802,0.0012216659544473,0.0014685820688631,0.0012654044922688,0.0006904134791738,-0.0009630960812983,-0.0045328023505508,-0.0011396636097154,0.0022379250651348,0.0017976951412967,0.0017142422892018,-0.0037982202095443,-0.0016538013117817,0.0032346026310012,1.7346072727064954e-05,-0.0033288697112501,0.0060784070627804,0.0025959352551114,-0.0067363919694452,-0.0063156394494483,0.0056826732998685,0.002340568139263,0.0049468457805453,0.0019213074180972,-0.0046059906378959,-0.0085977253595238,-0.0036396314918828,-0.0005504683994639,0.0071013511436669,0.0059516286001301,0.007031916242155,0.0027282927733939,-0.0039180819147639,-0.0094545519152253,-0.0123147616542257,-0.0019189439285145,0.0071070785252101,0.0063734966622991,0.0067281034380843,0.0027107423515923,-6.902981392823051e-05,-0.0024057653815877,-0.0047598156116207,-0.0040094558978277,-0.0034471825464968,-0.0027818767589241,0.003568879000159,0.0050764576108244,0.0047692459076801,0.0043070942738775,0.0002073861663408,-0.0049704897386894,-0.0069676064952279,-0.0043842797900378,0.0002508790097219,0.0001201090973751,0.0034037751935561,0.0082634672577211,0.0066954135001586,0.0021888272385158,-0.0047515981412497,-0.0129967922425178,-0.0101230685399276,0.0034063525535349,0.0055701187741893,0.0028912279519514,0.0055308597299899,0.0027100012743874,0.0026027256582893,0.0038982864739596,-0.001223126814821,-0.0127699192923066,-0.0124049043179403,0.0014647343844575,0.0034997813445295,0.0065170458926718,0.0073890859871661,0.0020342139730973,-0.0013015891444057,0.0011782336725757,0.0017034221862303,-0.0050178481582601,-0.006852300827931,-0.0009995017909308,-0.0034701797352953,-0.0035948897475942,0.0020097557555468,0.0093190581290995,0.013317226070851,0.0056990576249133,-0.0078833010665975,-0.0115062447734886,-0.0121428739971355,0.004757026909216,0.0051429115221557,0.0025481390264438,0.0012143527952958,-0.0010184102261034,4.255992520655301e-05,0.0023425935355227,-0.00187324490497,0.0010307762164549,0.0066834597296771,-0.0014550797439979,-0.0074349574495098,-0.004649295188598,-0.0024545930691624,0.0015260423977429,0.0020813272410294,0.0051345722053229,0.0035205036621419,0.0009303891054743,0.0049392732074838,-0.0019686824801003,-0.0062184400158989,-0.0077885472110499,-0.0050434207785502,-0.0012179265306265,0.0058027947847255,0.0111828448566454,0.0050161203522534,-0.000957815249965,-0.0052543164178482,-0.0063447068583762,-0.0020281218945832,0.0039805613657858,0.0031566406716897,-0.0006418531089418,-0.0018223172745923,-0.003012280420707,-0.005444069034218,-0.0008683065853827,0.009059287724035,0.0085984404589563,0.0049040312847631,-0.001695125533965,-0.0046442802131283,-0.0094564307271691,-0.0118457328104717,-0.0011949983843193,0.0052201154915108,0.0055275971698551,0.0098102339960936,0.0092369014286674,0.0037231412818768,-0.0050412626765803,-0.0098172610298022,-0.0109176594533249,-0.0101611040337204,0.0007886706416829,0.0069601829957247,0.0103140691426498,0.0116372368378456,0.0062683004844476,-0.0011292060150649,-0.0100565181973413,-0.0110256918247695,-0.0105755207010055,-0.0026501156941546,0.0052594423646727,0.010327987472322,0.0107004633282852,0.0063379934333565,0.0016340400058611,-0.0078187073285139,-0.011503853432493,-0.0102458835393143,-0.0044768538043157,0.00334732314428,0.0097631473387514,0.0118550790991379,0.0086211374341173,0.0014719289289579,-0.0064035113625982,-0.0115051604895492,-0.0116023571107406,-0.0066764836649721,0.001153496648787,0.0085872950334134,0.0125054842807797,0.011208511626939,0.0051208235490154,-0.0032966828561812,-0.0104803446921886,-0.0132775076009308,-0.0104115549871025,-0.0031393194094519,0.0053218846369414,0.0113357993266276,0.0125241016309161,0.0087083135269165,0.0017460495285128,-0.0054734102642354,-0.0102668276757094,-0.0110905100730949,-0.0079230982366048,-0.002112572460148,0.0041714643346603,0.0087002189831468,0.009949054210863,0.0076179604863683,0.0051885195408657,-0.0030342191270078,-0.0076340947538047,-0.0096911612979217,-0.0086424978287423,-0.0048869933884989,0.0003695708477643,0.005477301392272,0.008822007693251,0.0093165499896571,0.006764972144129,0.0019579229772872,-0.0035622396620615,-0.0079944306650505,-0.0098586407265544,-0.0084764743537425,-0.0042120103465298,0.0016013307738637,0.0070474529399269,0.010239235665124,0.0099756664973587,0.0062123512753059,0.0001481460726073,-0.0061403257705195,-0.0104135601354966,-0.0110891317436365,-0.0078604504714903,-0.0018525428106582,0.0072636802367529,0.0095491105502941,0.0107176961836875,0.0078705715098306,0.0021587909170883,-0.0042324609263404,-0.0089796850630326,-0.0104676278945928,-0.008283416583583,-0.003268633706518,0.0028037988029879,0.0078146003636806,0.0100093994510807,0.0086315164373812,0.0042194921025223,-0.0015971326027046,-0.0067326786755903,-0.0094194830399911,-0.0087966644556367,-0.0051375318155271,0.0002820559470364,0.0055864916593132,0.0088813405561849,0.0113802331026369,0.0053859976226122,-0.0005155556218288,-0.0066638789734919,-0.0105420011314651,-0.0078581534334308,-0.0059973919511288,0.0007565286447004,0.0069868994547705,0.0100132894632344,0.0086341668784543,0.0036398672332613,-0.0026285932966744,-0.0074216784831164,-0.0088359151657769,-0.00658287602856,0.0005265631982187,0.0027877409439327,0.0056657857380356,0.0057325581100715,0.0034633626932158,0.0002624592395646,-0.0023969597402017,-0.0036682620393742,-0.0035175123163403,-0.0024297962982858,-0.0009586505300619,0.0005415149199361,0.001887065125469,0.0028848967122574,0.0032312549085801,0.0026102752612072,0.0009328647140031,-0.0014534640851267,-0.003745568004337,-0.0049277188642588,-0.0042219947403134,-0.0015599604010015,0.0021936891845744,0.005477878263916,0.0067116038490174,0.0051000333954413,0.0011257285676792,-0.003580280864473,-0.0069581856725041,-0.0074791966583655,-0.0048707014550006,-0.0002537230890773,0.0043749915384791,0.0070717167753117,0.0068346724273196,0.0040072379277916,-3.038114590900065e-06,-0.0035052414150178,-0.0053351897754209,-0.005241159916215,-0.0037107276151167,-0.0014866446723502,0.0008288299115911,0.0028541406038473,0.0042779891717703,0.0047407829746817,0.0039319374546389,0.0018481130519051,-0.0010263653226341,-0.0038176458112459,-0.0056113403002711,-0.0058230008566019,-0.0043689810897794,0.0008781392499936,0.0017076126152721,0.0047131670900312,0.0064978468792519,0.006394370471631,0.0041575394943153,0.000129183391382,-0.0046895529317367,-0.0062843008380854,-0.0105617062207092,-0.0089381491486688,-0.0038392564438522,0.0035478936136473,0.0109005447837815,0.0153499283428208,0.0144326026114471,0.0071582459225537,-0.0051028193107708,-0.0182557221606407,-0.0259800462950553,-0.0212372537386642,0.0014902214041907,,,
