0.012283041303842,-0.0011003263499204,-0.0126846948805054,-0.0191279846215096,-0.0142210104840458,-0.0046330566096611,0.0037859253717465,0.0119424426823284,0.014625646612467,0.0119172155072099,0.0064139355728383,-0.0081003989675823,-0.0188008825294047,-0.0119276154519837,-0.0054761745868103,0.0028898086369827,0.0124917923368262,0.0134403017435883,0.0076076613111593,-0.0040093011288403,-0.00717476037758,-0.0092119298268988,-0.0064245612850702,0.0011751857624795,0.0026603031523106,0.0012878283556069,0.0056191934801281,0.0062514776376051,0.0038593639894607,-0.0030631259782022,-0.0066018241042631,-0.0042158510032938,-0.0029665686346167,-0.0004930637835688,0.0004145814911825,0.0013257551459304,0.004051399047317,0.0080757380843055,0.0033263959542574,-0.0027778287534242,-0.0077134253059678,-0.0062049901531425,-0.0026860851661495,0.003261161651821,0.0052112544999976,0.0036829561443621,0.0016214590106765,-0.003452560844846,-0.0019170621926292,-0.0022673853917413,-0.0010245274052464,0.0025154316638287,0.0026655733124067,-0.0005410921201692,0.0044836628562019,0.0007975219953661,-0.0064926014211846,-0.0065742269540932,-0.0020397128989282,0.0023989238481871,0.0035763910903855,0.0031271931952804,0.0068603654941951,0.0080977635758247,-0.0027449704106248,-0.0105069725334798,-0.010359182530055,-0.0084244017472686,-0.0007806088532748,0.0079493914678531,0.0130254267296624,0.0122435965592388,0.0023597670266194,-0.0039316393577682,-0.0098952601369215,-0.0160975377845347,-0.0013698161340938,0.0034148152620574,0.0028286759876212,0.0031480126723238,0.0085568270609704,-0.0003743640620085,-0.0007222258230063,0.0038831342772312,0.004317452698222,-0.0023654880940727,-0.0102825956966303,-0.0109594854542732,-0.0026383995862078,0.0005106599560783,0.0061309429645185,0.0091621649560617,0.006384868716103,0.0037925027962766,0.0031446088611126,-0.00515531318928,-0.0052522033194838,-0.0052076934494365,-0.0082500909208136,-0.0036331211315916,-0.0037239367614389,-0.0025521206331644,0.012946545030751,0.0168196144446872,0.0128752749285268,0.0038736465774901,-0.0087679081708846,-0.0179457811185298,-0.0140644845694082,-0.0084796020663719,-0.002544078898215,0.0034099273376654,0.0139256306819193,0.0206050857465708,0.0098399077403541,0.0034291324459782,-0.0080054015796918,-0.0156820109763303,-0.0168668382531259,-0.0079963077980052,0.0016335363436374,0.0098682709245446,0.007573674606665,0.0057887015311835,0.007148563981065,0.0052294213305284,0.0013157376300639,-0.0060786305149204,-0.0161211775288589,-0.0083493994001324,-0.0008920206240633,0.0078116094163128,0.0030063072409737,0.0027093191480723,0.004287228333186,0.0025842766651791,-0.0012172651248395,0.0057668375809757,-0.0031734391693144,-0.0076707674108989,-0.0029229231515958,-0.0054612440124231,-0.0018646896721624,0.0025307690655591,0.007091941147683,0.0117479095268662,-0.001466652584563,-0.0001007750860964,-0.0109718853617372,-0.0137046918215328,0.0072332170012279,0.0092552432362724,0.0129409487158211,0.0041860304698312,-0.0099058896936435,-0.0148917068937416,-0.0219036616943605,0.0134154912551847,0.0093657286189859,0.0059857645644878,0.0146520439612064,0.0038503755946489,-0.0102331114428986,0.0142269566781326,-0.0070431584937426,-0.0360098411471469,-0.0149015172959708,-0.000754976759091,0.0156023405121546,0.0342668519645827,0.0197206429047846,0.0029770699935306,-0.0118398491856457,-0.0283910277279262,-0.018817926774413,0.0058973165617444,0.0023628930369119,0.0024077235970204,0.0084092768560527,0.0005974385940394,0.0107452718133095,0.0127060251375052,0.0016722938122515,-0.0150222139499862,-0.0156655561224988,0.0013100949914092,-0.0030802306770664,-0.0039527538931814,0.0029295977806646,0.0038448212250646,0.0144195716039966,0.0142153387695529,0.0050152865375022,-0.0182717075793846,-0.026364027990464,-0.0088170359834808,0.0202095678986592,0.0181561595639329,0.0019306137890398,-0.0073960992031511,-0.0150457132639821,-0.0029422710307815,0.0141079361505568,0.0022544461545255,0.0037618618443086,-0.0030253044778345,-0.0022794654982307,0.0006842742877881,-0.0043897800850597,-0.015351023643781,-0.0080047135130638,0.020392629395707,0.0275303700407547,0.0061225448819154,-0.013459676916615,-0.0208156567805595,-0.0179414369423349,-0.0115822223883424,0.0198751859701923,0.0276163211453636,0.0176157663805347,0.0001786920322537,-0.030920632852927,-0.031912458793067,0.0097860401261821,0.0190788043440339,0.0117567377423272,0.0055599911448332,0.0024821827639551,-0.0109316844412935,-0.0193283057424405,-0.0038437746978893,0.0080937185124584,-0.002809635482547,0.0162614974404909,0.0213525030314473,0.0026562971667982,-0.0140255679596049,-0.0311010646610831,-0.0230392975065041,0.0203680155558814,0.0227518663551278,0.0079691800525575,0.003117456021443,-0.0074075439328582,0.0037658487868139,0.0058489135641905,-0.0190421760201309,-0.0227615051553607,-0.0009531592222966,0.024238012282983,0.0157513342550823,-0.0005874796171003,-0.0093950999360746,-0.0062815753745044,-0.0010280445885441,-0.0003140787076655,0.0121041058785563,0.0013238130311761,-0.0088821267160013,-0.0087970337607095,-0.0043909895905706,0.009169579787218,0.0069777657682287,-0.0080992695835905,-0.0026010440806279,0.0174233026498367,0.0073425024220641,-0.0116901930103314,-0.0100598101865337,0.0041243153212909,0.003750152407849,-0.0103137486754701,-0.0097855739430891,-0.0061694258497599,0.0114614263014318,0.0187003617415301,0.0187320075824613,0.0047942160284234,-0.0134994882796338,-0.0149216935383369,-0.0199059409404298,-0.0155584162880428,0.0065523363087326,0.0090948604049248,0.0123851159151148,0.0265732080406067,0.014757207749203,-0.0048111326685394,-0.0187571575718083,-0.01916096897156,-0.0177911014099968,-0.0169893020332525,0.0071527481888088,0.0335014291056721,0.0258353639732965,0.0040391199575073,-0.0110133323289242,-0.0171556784502289,-0.0027692687348907,-0.0002652559237806,-0.0082038362963763,-0.0078472290933098,-0.0015855405247627,0.0145210447710579,0.0131735907924193,0.0054176310637597,0.0011178210973402,-0.0057349236715924,-0.0072220624909726,-0.0031361448173127,-0.0100816191110757,-0.0072616177255115,0.0084759963693927,0.0146659841245433,0.0042470905834526,-0.0035559531555614,-0.0049627529218804,0.0025685727397842,0.005607700418575,-0.0039651406328362,-0.0155947750819877,-0.0053727456366804,0.0077690106187953,0.0152085051328935,0.0093429376859926,-0.0037548431117475,-0.0153808254278431,-0.0117578297155363,0.0028827245616997,0.0069020645947219,0.0107247926644667,0.0063895401792617,0.0020740577010113,-0.0075625821219556,-0.0110642521879275,-0.0082585110409627,0.0006233563574729,0.0035306850823044,0.0024315727076256,0.011330445442871,0.0073655018108771,0.0036218566561769,-0.0042405769285694,-0.0097137035759902,-0.0125253058358136,-0.0077870251778585,0.0013361598432685,0.0106239936778113,0.0110981014941982,0.006508586161992,0.0044721683704123,-0.0030051089177769,-0.0101669617718469,-0.0106005082534114,-0.0083779763644369,-0.001334436263194,0.0127378929859392,0.0132832920376785,0.0080263352921541,-0.0040660813853068,-0.0114259586130624,-0.0096739863783468,-4.604818377793806e-05,0.0030392586708631,0.0035380482708454,0.0044796825634849,0.0013580601166597,-0.0026084336311021,-0.0004546120584847,0.0061438769114896,0.001497410658064,-0.0059371494578557,-0.0133666570058821,-0.0083793601949223,0.009648331359778,0.0117872354963045,0.0127349318158795,0.0040370874605473,-0.0109064407595239,-0.0134192425922532,-0.0055349597001746,0.0045883338076946,0.0016806090561204,0.0037049233337059,0.001157355360443,0.003690992467813,-0.0013296501152078,-0.0017079878129801,0.0018481508589924,0.0016437409168567,-0.003240210823856,-0.0062667347884789,-0.0002830679036048,0.0052028745491059,0.0031028363282954,0.000213806254911,-0.0022848620247861,-0.0032367368331162,-0.0057868924082284,0.0055700791422281,0.0106320685258404,-0.0026515050324637,-0.0028842556386082,-0.0008844089790961,-0.0013666874854506,-0.0030002202694354,-0.0007540666434032,0.0001962796650894,0.0002844190548222,0.0037673450050528,-0.0008434132857943,-0.0025990569602504,0.0075650454354588,0.0063356644203842,-0.003043844498227,-0.0083029924858801,-0.0067890503641097,-0.0056802063102859,0.0018131268444436,0.0095941814655729,0.0085106831124321,0.0039158648395044,-0.0021455341737174,-0.0057193278573044,-0.0044235837403727,-0.0055577832738158,-0.0056793058308415,0.0017222362810865,0.0099180241831954,0.014490938158978,0.0045460695373405,-0.0104910292152472,-0.0146436492064718,-0.0079474157225621,0.0024354895464992,0.0074244441661498,0.0079423734713594,0.0079908346330151,0.0017207300820165,-0.0100150663968245,-0.0041154932381962,0.0008538717486815,-0.0034492000616911,-0.0026126535398786,-0.0017392045655907,0.0039132108720468,0.004060690137967,0.0033497674263469,0.0058976510575844,0.0032292583324025,-0.0022269698604946,-0.0082021888090286,-0.0083990208103293,-0.0031645119716067,-0.0038912556299328,0.0016157659813476,0.0088544104996795,0.007450676988018,0.0102119254963477,0.0014309026209235,-0.0045163463327132,-0.0033953503107112,-0.008700578476722,-0.0104523960466839,-0.0093888053704708,0.0001001643398643,0.0114685956992026,0.0127016912262714,0.0092229427467627,0.0022102415142982,0.0072473903332456,-0.0019280201480298,-0.0138733156457253,-0.0199449517350771,-0.0132474021621689,-0.0043397516860718,0.0031441999234341,0.0235133874233138,0.0255573653160588,0.0170598591244897,6.130821256431242e-06,-0.01810185398722,-0.0213453603422221,-0.022403700009008,-0.0163474459607283,-0.0003840671305339,0.0160396926478823,0.0316027930152381,0.0288000799615492,0.0138428151802058,-0.0129147261001269,-0.0302232811605813,-0.0291955757855246,-0.0144405108366042,0.0001288389259934,0.0152886205913746,0.020052332926916,0.0200611158466933,0.0089913943994847,0.0012536888410171,-0.0065900128317748,-0.0182197073689402,-0.0212473334580014,-0.0141024921613396,0.000225374441029,0.0166490992644211,0.0186978317564161,0.0131660260771996,0.0086518469908201,-0.0019035470157988,-0.0122693736747086,-0.0154170528990464,-0.0151805718105408,-0.00652760905052,0.0028615178721493,,,,
0.0002390557485545,-0.0014772761505541,-0.0073580576597518,-0.0067867783279721,-0.005606266656898,-0.003671155604554,0.0021370913229065,0.0106963925944119,0.0100502602206893,0.0031958033519866,-0.0067792867941712,-0.0071491404235042,-0.001889355423952,0.0049366595929299,0.0009205683401222,-0.0027020975892812,-0.0050394387535377,-0.0072882145162599,0.0079365353610604,0.0105411471857738,0.0024676614399263,-0.0002745858533489,-0.0047911285168298,-0.0045136851257529,-0.0057566312871512,-0.0005548387782717,0.0049095838469643,0.0054084026508013,0.0013747272487156,-0.001336156505466,-0.0038385123870244,-0.0003128168896753,0.0024124811320592,-0.0014601116010866,-0.0033258900660184,0.0029792171903816,0.0027024476168015,-0.000947368939525,0.0028766404409773,-0.0018478181403035,-0.0051544288964605,-0.0003558723482381,-0.0003694918620753,-0.0011911412266361,0.0044273388954748,0.0047647393836845,0.0035652105551179,-0.0006462715397987,-0.0024805597827331,-0.0069694324978432,-0.0030834998285047,-0.0044128661714365,-0.0055587289548496,0.0094373951925276,0.0111137446391249,0.0103060964389804,0.0018954970440153,-0.0046034338829755,-0.0122716896077332,-0.0127502865355425,-0.0046691785445703,-2.108722670079473e-05,0.0055066074265635,0.012059719021011,0.0136383803963222,0.006433236178648,-0.0026429213356659,-0.0082850583034829,-0.0131911810118012,-0.0141235992112184,-0.0070985674644697,0.0083636099528238,0.0098377977327093,0.0122523198204474,0.0119605215701025,0.0054109445721696,-0.0048603656481047,-0.012833916860491,-0.0129527679234874,-0.010812168411193,-0.0049037175283034,0.0017440897151827,0.012012617593977,0.0198037663751652,0.0159504470481556,0.0009236712419254,-0.010001225170192,-0.0149462966513703,-0.0154646147992647,-0.0101940934591174,-0.0011669128196626,0.0079299878564942,0.0129602632576714,0.016968466757221,0.0112328923371948,0.0013548722187895,-0.0111519397506614,-0.0162973483940259,-0.0136576278012599,-0.0078548387136368,0.0023956128554841,0.0062897626318083,0.0141338163799962,0.016946689543594,0.0101736021294297,-0.0029259268482727,-0.0171453400560343,-0.0216318634993696,-0.0063765332161079,0.0028988266897944,0.0093381754509316,0.0102030121105064,0.0105402014642063,0.0013014340519705,-0.003606432590912,-0.0080731340122997,-0.002329642013602,-2.2220978335414855e-05,-0.000403432134538,-0.0039083434635272,-0.0063654944543933,-0.0027066790800886,0.0083777781234927,0.0137229996719986,0.0111957551132988,0.0004130607339268,-0.0095477390387312,-0.0103779889249726,-0.0103260906522754,-0.0047146477093644,-0.0016583063385685,0.0026356677073755,0.0077861736859132,0.0124717658603844,0.0159807264429197,0.0093966180779266,-0.0086853469267158,-0.0175905197518145,-0.0231806421106306,-0.0185320727970181,0.0070499246278965,0.0205543766448236,0.0178714987658133,0.0119207867628414,0.0071716169635091,-0.0102829385582748,-0.0159895706677963,-0.0119787336904918,-0.001504889186159,0.0001436457121432,0.0046155484321951,0.004301073611866,0.0058052006991325,0.0008036277076945,-0.0008647413282019,0.0002068832986036,2.2348669271895015e-05,0.0059000361806491,-0.0044214432938255,-0.0032368627009137,-0.0074712871232193,-0.0035892388475838,0.0022412103966136,0.0040005312616993,0.0054373651739382,0.0057923716955341,-0.000596418224994,-0.0138601994013972,-0.0039669330615721,0.0215354113059503,0.0130793762572168,-0.0095105066564065,-0.0330310221105443,-0.0093984263904949,0.0066895085216338,0.0323328812447058,0.0169562587718741,-0.019462942030684,-0.004541425967923,-0.0303241813774784,0.0001429462738197,0.0429239746032606,0.0227710830524022,-0.0120952786940017,-0.0333384048385091,-0.0185303094597948,-0.019367859478373,0.0113682622536592,0.0374884833658885,0.0278959354084927,0.0073091279947848,-0.0112097109963791,-0.0247077330567377,-0.0293564865203757,0.0026809143873897,0.010238528082614,-0.0107482285857422,0.0153640257006593,0.0232374406879047,-0.0042804470353669,-0.0072927330050168,0.021287920262034,0.0082474288393872,-0.0278171349057204,-0.032604960149495,-0.0104887132373832,-0.0044908264505948,0.0248336826314925,0.0370990235771557,0.0281434420113194,-0.0038480662653539,-0.0409755155277881,-0.0204670501188657,-0.0028087013248726,0.000421375732205,0.0013208751862602,0.0111759358315402,0.0209143074198735,0.0091613689395615,-0.0131423299943897,-0.0122399744773591,-0.0041646323601331,-0.0053456303947327,0.0113318503685214,0.010017455359276,0.0015944357097078,-0.0093460168302385,-0.0115316743476104,-0.0067145297137525,0.0083443953161383,0.0132240607640563,-0.0080954627542419,0.0045504872287774,0.0207300617412487,0.0025428503559807,-0.0205778687863731,-0.0237358872702854,-0.0055953724511546,0.0112398322018362,0.0083879087472274,0.0158090207305518,0.0063945741518224,-0.0235541410521634,0.008836736765861,0.016270130373517,-0.0043680865954982,-0.0144592065500379,-0.0126463435907514,0.0006764909032687,-0.0073951635170396,-0.0024831087373757,0.0286360143081291,0.0147736854093036,0.001203962916772,-0.0043783012253647,-0.0099891471165687,-0.0105781838272527,-0.0177187509637183,-0.0050332459618876,0.0125272524220761,0.0129839176280422,0.0034966962763546,0.0095479661548744,0.0031663197134432,-0.0123019299820616,0.0072616611748244,-0.0026857391107096,-0.0189741253621285,-0.0068693897331797,-0.0007356952113837,0.0114816316570281,0.0031016112597984,-0.0019371595713541,0.0168306011489192,0.0208786694903052,-0.001033622890564,-0.0284234599643785,-0.0186786684387316,-0.019598129909481,0.0039660535455343,0.0188262917778309,0.0243030244300134,0.0155960411502125,0.0031752044601883,-0.0139564443717648,-0.0282669597241703,-0.003250146930588,0.0030155626715032,0.0031542475057528,0.0017894540677763,0.002844134245055,0.0103381671526106,0.0082793979287664,-0.0038218118833842,-0.0116205092458685,0.0038967957957223,-0.0024941117827936,-0.0036236252717224,-0.0086243015858494,0.0001108062132747,0.0054205727000835,0.014703359423869,0.0050310802465422,-0.010719499465764,-0.0004002862756516,0.0055709983814817,-0.0024696582100651,-0.0099255021467845,-0.017110270622125,0.0023855285808021,0.0174364239289912,0.0154676658159135,0.0059340402743836,-0.0038454550756225,-0.0118098240426176,-0.0148914941162289,-0.0041057818648998,0.0031148092467589,0.0108850643159164,0.0094146529499673,-0.0030340009610143,-0.0111936606324446,0.0065427786616991,0.0102268501217168,-0.0031820938466899,-0.0085329336963194,-0.0021966451347789,-0.0036796443041376,-0.0017038095983082,-0.000671111555549,0.001725756958294,0.0182482462673609,0.0113003031484291,-0.0059681240412209,-0.0227167736239901,-0.0101522963954357,0.0030746794759554,0.0077435907557832,0.0058381907865306,0.0100005601530144,-0.0001586840169972,-0.0064789889423123,0.0030553994810377,-0.0052137918470024,-0.0127740016585679,-0.001948650604975,0.0067584522512988,0.0122648081735892,0.005425672730868,-0.0029436790592357,-0.0041347893684828,-0.0100095336151224,-0.0022294788221079,0.0064764708377881,0.0052734002642945,0.0015429146983851,-0.0038872859965404,-0.0027782520201084,-0.0040530793665215,0.0020341604756538,0.0041843707275183,0.0040325519128931,0.0002928828010149,0.0006098436436188,-0.0058188551198282,-0.0033619599334594,-0.000545544074946,7.712703644740913e-05,0.0050526155093394,0.0020767303428507,-2.1244373051016448e-05,-0.0038631994800356,-0.0018881984667705,0.005051791956814,-0.0008371508282358,-0.0034257785761411,0.0064435758690832,0.0012192699845448,-0.0070639217885056,-0.0032635928184253,-0.0020025231917626,0.0012916379418695,0.006821718357573,0.0052717646985294,-0.0012032529745549,-0.0024264579347061,-0.002302681056082,-0.0007116949437472,-0.000520828764334,-0.0022807185514295,-0.0022558326057966,-0.0013981525170764,0.0035226585504005,0.006879246694305,0.0025080753764225,0.0005911401085517,0.00058564720291,-0.0049860351327669,-0.0118277184677487,0.0008467847608373,0.003702919971699,0.0034091488936941,0.0008118824373527,-0.0002356387920948,0.0050170640107251,0.0053632175463887,-0.0005156835016748,-0.0046632800016093,-0.0078204793404536,-0.0090788367684512,-0.0026691114267526,0.0054632364221725,0.0133045110522939,0.0095296750429692,0.0033059825805925,-0.0062175237227837,-0.0104093608920117,-0.0113451359505716,-0.0042712854080659,0.0044737263365545,0.0082581253558925,0.0097376068878549,0.0078246384776876,4.079156546999285e-05,-0.0095683278955887,-0.0088946312133017,-0.0058443123645261,-0.00264115043422,0.0039367347974365,0.0033736236342301,0.0025599487313194,0.0100437617647438,0.0148307685722624,-0.0026536823302331,-0.0149347425962043,-0.0121142328441843,-0.0160431741694735,-0.0006967739241466,0.0141683794102069,0.0095606744829699,0.0113344036578433,0.0092003149420208,0.0035915868474368,-0.0079341375156132,-0.0171316913817832,-0.0177997117440199,-0.0108039828450964,0.0073415060184452,0.0202357678144921,0.0154049766153507,0.0065849630384726,-0.0018969456933576,-0.0096728182193815,-0.0108720153703542,-0.0068491456374861,0.0017589963383688,0.0036169471104857,0.0007145019755093,-0.0035907243928586,0.0053385741434884,0.0077707101951868,0.0014110997310286,-0.0027539566942847,-0.0025833282882582,-0.003949318154636,0.0043244274978402,0.0001452390561066,-0.0042708527596099,-0.0035360072938467,-0.0023557393134905,-0.0009773839876021,0.0043605022753084,0.0100581577712322,0.0054170449631194,-6.849980139142338e-05,-0.0081278824450893,-0.0041852398523825,-0.0002504852982786,-0.0015487934063108,-0.0058661139366077,-0.0031748677933998,0.0006790736452398,0.0097609152395506,0.0104229044647568,0.0081620388185597,0.0058200180441252,-0.0077605949818267,-0.0220768767819333,-0.0138882537828185,-0.0057948151000243,0.0047748648779444,0.017637981845659,0.0180661902083961,0.0105414273209597,-0.0013996774329476,-0.0077426362696583,-0.01359423766463,-0.0151663686078329,-0.0085646104227501,-0.001160829425055,0.0095250672207689,0.0142996932845603,0.0129485863967471,0.0066487622401303,-0.0004109706555031,-0.0069624306571239,-0.0122886354759948,-0.0142421567307115,-0.0065253889689547,0.0003070757984067,0.0107297047945751,0.0125977239053279,0.0110924496204618,0.004439707985447,-0.0069110112091677,-0.0078828944099461,,,,
0.0112755081701868,0.0066068343446825,-0.000982142008536,-0.0055202996149133,-0.0071515184265554,-0.0123524432791568,-0.0081620799049684,-0.0019523437164432,0.0093328624915773,0.0162039740092918,0.0105716971912918,-0.0008108238897114,-0.0084249993245626,-0.002664028742838,-0.0030730290345239,-0.0090313411753936,-0.0107831915158394,0.0018984866145165,0.0136294974547194,0.0118232189791878,0.0045502908505501,-0.0015109085121387,-0.004873186468641,-0.0053843630067226,-0.0075699451999782,-0.0028089206409413,-0.0013631445789939,0.0015203857320779,0.0026903641007452,0.006622140239446,0.0124967021462964,0.0046528648109043,-0.0069852892973724,-0.0120629275442615,-0.0085001692280511,-0.0033418187294873,0.0019806438372609,0.004877114827736,0.0079183776129674,0.0055581135712669,0.0035077866646244,-0.0037166124793412,-0.0023484065580443,-0.0065977939815772,-0.0076165123959027,0.0002611019007692,0.0062879865130685,0.0032039007262519,0.0043201037327491,0.0039732352664012,-0.0016537432275558,-0.007645382771368,-0.0153342375784347,0.0032827709613682,0.0130966952896076,0.0114036160682796,0.000238217872495,-0.0033197701969145,-0.00585433172731,-0.0100178646400663,-0.0038734298937476,0.0025057774141428,0.0020023563139631,0.0024554885181024,0.0055471210714799,0.0103195998722964,0.0048233374800106,-0.0064197362640685,-0.0117048355076926,-0.0057301275373862,-0.0023114325072365,-0.0025309650508689,0.0005516933752393,0.0073033476238584,0.0112775109988933,0.0087587751104407,1.4177840502193462e-05,-0.006742032301834,-0.0098746885405312,-0.0105204887039118,-0.0034196715541355,0.0009623778044435,0.0077911941893069,0.0097373880262067,0.0076695205492802,0.0012793847071159,-0.0025326512448518,-0.005814716292197,-0.005497202354788,-0.0078584341725067,-0.0064982135699421,0.0009449734787026,0.0092655969280668,0.0119398072213062,0.0087023232730845,0.0005269572904955,-0.0056644618988876,-0.0103981847916597,-0.0096012358734421,-0.0055075065904678,0.0031816610886365,0.0065224756858592,0.0091052504148533,0.0062071090692385,-0.0049897644939092,0.0042692287920381,0.0009946463896987,-0.0084678749343549,-0.0073403531832569,-0.0054343143917566,0.0001815771952767,0.0015622465876017,0.0033488823383682,0.0139198108095684,0.0096987440433343,-0.0003834579923298,-0.0072145724844571,-0.0120908060015828,-0.0125834104778828,-0.0051261147371111,0.0035046576429087,0.0115510822298807,0.0157302762915443,0.0062534443802356,0.0014128851068893,-0.0065358189924977,-0.0203019278529396,-0.0014511719447754,0.0024456179291433,0.0002016233358933,-0.0006272402749242,-0.0057287166019007,0.0070065449373682,0.0118310969251033,0.0178415410563561,0.0137158743699389,-0.007738179938113,-0.0292089750937435,-0.0458183298525693,-0.025742107705964,0.042988086474242,0.0530919286698515,0.0188421583664813,0.0015072763654862,-0.019634356700313,-0.0239449858029929,-0.0214022908442601,-0.0112232469346706,-0.0099061749062898,0.025309852691319,0.0227877942981303,0.0149620674338137,0.0092385298716551,-0.0068425150971795,-0.0125508787678062,-0.0132619683312623,-0.025573074427543,-0.0084474975889784,0.0210724074762918,0.0171856077862601,0.0013677117026148,0.014999481566705,0.0085112346463888,-0.0093293118304744,-0.0173610327319811,-0.0155448239111668,-0.0053613749776549,-0.0179365618664717,0.0251092515487952,0.0259950037927327,0.0235498712273276,0.0004858910958843,-0.026635228839984,-0.0285653912573995,-0.0170692458456237,0.0073574321673595,0.0207052311030338,0.0189531568732478,0.0115931777185526,-0.0047448977405363,-0.0002502542578683,-0.0088731973422507,-0.0308429731796203,-0.0160044646791268,0.0176534365768343,0.0131788216148901,0.0213826776129489,0.0108962133951923,-0.0028597693683307,-0.0091949202547844,-0.0153330388481406,-0.0109613570474576,-0.0145982690165534,0.0075824615315294,0.0066368960982803,0.0108589241948586,0.0157027228332294,0.0212765321634092,0.0033625866810991,-0.0225600413380042,-0.0483326167238943,-0.0181850303487362,0.0219286947858785,0.0352607762670836,0.0217119438521532,-0.0053413689120734,-0.0232944273574089,0.0085775389812821,0.004437522485178,-0.0169547966405769,-0.0187264770041094,0.0058889980285992,0.0009182346485081,0.0103832282804951,0.0260537118397624,0.0183988548618912,-0.0098806626343613,-0.0395566221060898,-0.0321302275825506,0.0162979293526244,0.0338482089299702,0.0153005387699876,-0.016505712627125,-0.0026515734979841,-0.0162168703442373,0.0115154274063869,0.0069987148348456,0.0077460739671204,-0.0060036738165675,-0.0145103970010908,0.0070332012106967,-0.0054509050259308,-0.0200412572640822,0.0008027226204294,0.0248594735898285,0.019488580184017,0.0353545120533028,-0.0006851158932675,-0.0488468613206543,-0.0548196218113661,-0.0460703642872798,0.0291481678585219,0.1060397314260628,0.0363489568650793,-0.0214806364780531,-0.0212401680649727,-0.038562274393648,-0.0762639690867951,0.0471837838598045,0.0713742404245036,-0.0125982937090223,-0.0555728880316804,-0.0148166398609661,0.0185842566493779,0.0884676067851417,0.0183301700643345,-0.041984154313232,-0.035278914882433,-0.0575996541539761,-0.0155414502487661,0.0158303742278414,0.0440232695928864,0.0387791556563209,0.0229097774283583,0.0170123040169755,-0.001400280922963,-0.0588335798300498,-0.079817338121464,-0.0383620722615188,0.0814857980944916,0.054501978592222,0.0081001116990009,-0.0179555044969436,0.0175320668209602,0.0099408186118584,-0.0430411765303184,-0.0214309364480291,0.0047956885647448,0.0013397874210689,-0.0084643558127898,0.0159266165162013,-0.0306658190641454,0.0455795924901323,0.0475063478046587,0.003989409197943,-0.030072080604139,-0.0343655541076032,-0.0459541159590482,-0.0007860377615757,0.0349591688245392,0.027300707251532,0.0162639611921711,-0.0110095307753881,-0.0112216864284927,0.0048934309877359,0.009709491328823,-0.0149555373214436,-0.0014218772704976,-0.0401037694505034,0.006522605870998,0.0374397202414538,0.0220776371540966,0.0026421965211423,-0.0330700006904312,-0.0210414006764263,0.0041143181836189,0.0225011222609982,0.0191965380981989,-0.00258344207037,-0.0119659919500027,-0.0143516015678726,-0.0124198256646751,-0.0022614451119449,0.0171970600239562,-0.0011274122361131,0.0029949501346884,0.029682234173802,0.0283647861339349,-0.0207027509408704,-0.0719733612158094,-0.0515295109935292,0.0377362943615241,0.0869403638665211,0.047491641832088,-0.0466002868790931,-0.0735291925155431,-0.0041788054370033,0.0308279259196711,0.030687369007306,0.0050133633044299,-0.0206887370168544,-0.0222576462212261,-0.0010816983140231,-0.0013645411375678,0.0010790037654996,0.0401061760717874,0.0251299991458161,-0.0051232298178846,-0.0300722890954746,-0.0472395090415099,-0.0259312548441071,0.017395760079888,0.0381217233574247,0.0449566818848146,0.0203648756012187,-0.0139769304892949,-0.0398912949573788,-0.0408637705961059,-0.004925557193393,0.0143012829002119,0.0161023172422902,0.0158167428413774,0.0111461996186939,0.0053769906016923,-0.0015770348395288,-0.0060132667057127,-0.0116804189159545,-0.0178937151396093,-0.0128820855325797,0.0043057500148897,0.0153944145894202,0.0187208709188669,0.0083258586526553,-0.0062861914104139,-0.0016238420944508,-0.0014039039917468,-0.0118641784553496,-0.0081449908062709,-0.0028249065618471,-0.0002396570452302,0.0086207310176541,0.0093172364857805,0.0034297786867509,-0.0004228285470331,0.0003367380810482,-0.0070082094036893,0.0009555464763002,0.0026738392803688,-0.0062932134754229,-0.00218761521167,-0.0018470098240788,-0.006396351909803,0.0023025089429531,0.0082511360933007,0.0109570614691691,0.0080874439359587,-0.0003434547946174,-0.009178754268882,-0.0104679619743341,-0.0031917890125947,-0.0060752087275199,-0.0076493150963881,0.0026432141451382,0.0123016013125332,0.0119518474338724,0.0150397791693724,0.0097655539491437,-0.0091567965380113,-0.0293801632888282,-0.0158188048420131,-0.0047026157163694,0.009857597009434,0.0139566792421651,0.0058162907095519,0.0031158974168943,0.0070593431918812,0.0080473366579393,-5.799827528335723e-05,-0.0137482950887935,-0.0173128299988065,-0.0138035045255287,-0.0010376194673728,0.0109330286265136,0.0145755439195491,0.0103343898965108,0.0085875793062955,0.0048000330963727,-0.0081175359175133,-0.0142122941650282,-0.0164906948392392,-0.0102059455024493,-0.0007264586841164,0.0159757564739173,0.0174606409630275,0.0137435959839649,0.0040605987808678,-0.0063309351301278,-0.017541504987179,-0.01789224174531,-0.0087708422988627,0.0034537109041541,0.0135521045946834,0.0148543341885205,0.0132675477084441,0.0032015055983443,-0.0084936638466888,-0.014792490186416,-0.0126666089407607,-0.0069896177034375,0.0015844434431605,0.0087220403894057,0.0136612425922883,0.0132075003351354,0.0046730077764347,-0.0089732778084446,-0.0175023489190578,-0.0103189388318902,-0.0001366005171187,0.0063436952306673,0.0067045985381173,0.0047807461802647,0.0057590191598274,0.0019194525157621,-0.0024786363563532,-0.0065558389559156,-0.0062689719099166,-0.0056817742415088,0.0010070846680233,0.0035120923596734,0.0045462494570203,0.0047479077856029,0.0044747109813865,0.0011987672651746,-0.0005587706561171,-0.0030765802825785,-0.0080091330496956,-0.009495572513355,-0.0019158438076363,0.0022338717735764,0.006458243175999,0.0085564370759755,0.0121916185745654,0.0028471362598226,-0.0058974947891496,-0.0140741590709988,-0.0069581674729935,-0.0047872312229119,3.0418501529798335e-05,0.0059106645066053,0.0074712862795547,0.0062566834413743,3.846770634722083e-05,0.0004666410585069,0.0021826793382851,-0.0011265699916439,-0.0061431024509076,-0.0136943586582703,-0.0020071022268148,0.0046144206755312,0.0057468739947423,0.0086317981465139,0.0048331974407692,0.0003047813677268,-0.0049642679061262,-0.0055679124099718,-0.0045177544651738,-0.0041131144809402,-0.0013098177451055,0.0058621028950822,0.0097472737599301,0.0087077760452524,0.000206533547363,-0.009673206287774,-0.0161843616956264,-0.0064805256961484,0.0046238285214259,0.0109785546898391,0.0095635668638996,0.0058226850708331,0.0002880116410035,-0.0032901318985035,-0.0076088018408243,-0.0071369592220656,-0.0063280866158408,-0.0028978993583433,0.0020239707455069,,,,
-0.0117547483183821,-0.0048223607920996,0.0110889437747047,0.0148362427578922,0.0157040151350563,0.0092362564909374,0.0014096978465586,-0.0089015934791933,-0.0157808537520046,-0.015975293521851,-0.0092797872108821,-0.0011577831358859,0.0070389360058264,0.0184909770953594,0.0194981241283301,0.0097223257932124,-0.0025417544745354,-0.0123448840907679,-0.0143325869241037,-0.0160481838533848,-0.0131141617495243,0.0016618967284064,0.0142163392271452,0.0138737210323142,0.0165863498707258,0.0120442053521349,-0.0001847511761594,-0.012862676790518,-0.0177648979477612,-0.016800280416534,-0.0102110019731275,0.0043733187581625,0.0116509678198245,0.0102504649350889,0.0189589119191023,0.0140581729600058,-0.0012941691281564,-0.0169057241134379,-0.0175729718379863,-0.015049398638826,-0.0070997316940916,0.0074727951166383,0.015002898556832,0.0159058595344703,0.0075059843386039,-0.0018069283539364,-0.0097432490513332,-0.0076006783375507,-0.004153442552797,0.000172795883453,-0.0002935689032397,0.0015212841626401,-0.0012915172239335,-6.819024888674239e-05,0.0035079289424707,0.004146922420337,0.0050068559869136,0.0038398753748397,-0.0038577020705777,-0.005956919533653,-0.006344649369011,-0.0052049273775466,-0.0006627216987096,-0.0012911499333134,0.0101345006162605,0.0089470612489586,0.0042113194562133,0.0002689760261821,-0.0030125420229277,-0.0058482713709673,-0.0082606794810409,-0.0057610958682527,-0.0038667453433794,0.0017541341738413,0.0107344377070688,0.0111754979676423,0.005722176144806,0.0027530878884181,-0.0062124793438225,-0.0100909064455873,-0.0104021944261817,-0.0077832470774406,0.0009493291685883,0.0081856800138732,0.0113023248048882,0.0088839773159233,0.0015361785164152,-0.0031820840939371,-0.0089181554552568,-0.0050724977465949,-0.0003186755047405,0.0031909505787484,-0.0010621819371613,-0.0057097305008222,-0.0057240669546793,0.0028278333052116,0.0146412849865678,0.0130741677918471,0.0033203039929882,-0.0077467128628343,-0.0157560605200552,-0.009286154169123,-0.0045434825629072,0.0033054472400117,0.0105944088880561,0.0084515442541225,0.0013909560253898,-0.0019261659751558,0.0004607340933489,-0.0007344042637277,0.0012456686546774,-0.003929550747029,-0.0077726213955517,-0.0058375469837455,-0.0021294996054571,0.0060764262295062,0.0119042440953127,0.0092933154814318,0.0025863041202045,-0.0099847415182543,-0.012640482292337,-0.0010968116036317,0.0009371890512736,0.0007245506653093,-0.0056281847861995,0.0108902959580235,0.0172448316355947,0.0060542001647151,-0.0106614829879991,-0.0199491105295483,-0.0174365400473677,-0.0002603154092798,0.0188370332977765,0.0169449141797561,0.0108384088638301,-0.0046160249938493,-0.0121616222244658,0.0009734597050759,-0.003913816321565,-0.010667478198063,-0.0098792539245309,-0.0043755207433734,0.003789620987761,0.0308102786351386,0.0209328406271753,0.0026079002442632,-0.0233857232266787,-0.0240634862370684,-0.0095308794165466,0.0061642505899848,0.0106146525319619,0.0053730082450156,0.0004901747262216,0.0076193018299181,0.0059112657722766,-0.006174484916181,-0.0211236222513388,0.0074710349451179,0.0113025388716156,0.0026238363975825,-0.0028654393187612,-0.0039803336185904,0.0054293042666576,-0.0192526244893129,-0.0264360116252705,0.0068536779399959,0.0621142309878062,0.0342603873650927,-0.0225843302008046,-0.0627767176835109,-0.022310182938536,0.0105950491590877,0.0230064387807407,0.0129265014634639,0.0141718959563066,0.0188439331773367,-0.0054926966464155,-0.0421369637438239,-0.0117375690663814,-0.0030654323568894,-0.0048693477318688,0.019243316405144,0.0353597188623732,0.0382266928356202,0.0013345194043947,-0.0499951140900861,-0.0795212275941759,-0.0640629607599706,0.0838476472841956,0.1153604591931434,0.0482358728480826,-0.047248390264822,-0.0927466889256442,-0.0464117754496366,0.0122744058728969,0.0483932873996218,0.0203606313017017,0.0005307136706616,-0.0006899581135813,0.0200574481105259,0.0010511141342255,-0.030184633909201,-0.0398655493461141,0.0010825159881124,0.0234761231567779,0.0293799314954694,0.0097396606241245,-0.0243444396761412,-0.0124115637157245,0.0038435150822284,0.0115649873095809,0.0221411572542772,-0.002378239743359,-0.0140077851186954,-0.0329015174576951,-0.0328138032593404,-0.0114856944270305,0.0564635068790978,0.0608340059733554,0.0388806598408878,0.0029144225167242,-0.066005843083574,-0.1142783697518158,-0.0566892919816838,0.0617385302530381,0.1249763334206067,0.0691893752108763,-0.0217568958026185,-0.085297220211014,-0.0476087982616812,0.0241812985001694,0.0084583825265178,-0.0260882359097255,0.0111713780434508,0.0111740211605016,0.0515631780582643,0.022321692027775,-0.0071591261930479,-0.0495441156552928,-0.0713900765866817,-0.0002690805163037,0.0532329085981919,0.0367285959537112,0.0180292896581365,0.0043303935374602,-0.0163994438733174,-0.0320529226169517,-0.0143817742995452,-0.0116383484910065,0.0044225048381919,-0.0129899523237637,0.0259456521324351,0.0487713855312572,0.0393408639960004,-0.0061293785841363,-0.0601743958904528,-0.0740548683076108,0.0028277493950609,0.0251673093044936,0.0260038338011706,0.0257456513009207,0.0129592596197335,0.0377377421733511,0.0032990496980218,-0.0563134404277634,-0.0840479531531262,-0.0113995203314575,0.0577372367560174,0.0498114124029958,0.0219131808475076,-0.0170618498161504,-0.0415040833557349,0.0035810474659492,0.0292351732247143,0.0106780179997709,-0.0323418077679408,-0.0344494694037073,0.0006892587098911,0.0113350440624772,0.0288382802474901,0.0218479341042625,0.0134900778604754,-0.0180651832534004,-0.0071599764015778,-0.0208154895960492,-0.028101720058746,-0.0022312221164338,0.0015927390412804,0.0368451025652806,0.0400557961192235,0.0096150122603192,-0.0203959505937788,-0.0387604046576348,-0.0379832614829032,-0.0002626286247354,0.0282460402353549,0.0315362458125083,0.0190266292679377,0.001136218935376,-0.0211947876910031,-0.0124025565597951,-0.0129360445058434,-0.0069323592192368,-0.0273977760074891,0.0160029147680744,0.0548046985659066,0.0290014785796826,-0.0113498202679528,-0.0232229658225286,-0.0333148261950072,-0.0227488402874087,0.0037397705533709,0.0116882590140449,0.0186882384828738,0.0096187904221806,0.0309043486195653,0.009685911738329,-0.028673790263194,-0.03166918566733,-0.0239157077518252,0.0176367152632738,0.0147105926651711,-0.0009949277088027,0.0017679527883388,0.0154846248294385,0.0105177061863372,-0.0016047680029213,-0.0047398072701299,-0.0093099647742886,-0.0252953116879417,-0.0220382653961878,0.0217496009634458,0.0255962016301547,0.0122429809628874,0.0041170146010198,-0.0050462146366556,-0.0136626942740901,-0.0102536957557117,-0.0028498901966878,-0.0008026667755167,0.0006718946898909,0.0003942055589427,0.0112956535112945,0.0076958095507619,0.0039709941708884,-0.0043176089434935,-0.004973945625091,-0.0034129107464132,-0.0035481272948421,-0.0054471347837373,-0.0075137555321452,0.0036026095884563,0.0094967284593097,0.0112734553258764,0.0074837563906884,-0.0024554673478901,-0.0081107724748326,-0.00470373992562,-0.0065127489573192,-0.0045930917352902,-0.0015252554541634,0.0049512986807574,0.0021274877660977,0.0073389249425731,0.0079023959719925,0.0056148360442763,-0.0071387011122145,-0.0109360941688949,-0.0068553701781817,0.0007991509872814,0.0018629860695888,0.0048386846557336,0.0030351282452625,0.0040609415571894,-0.0008909641953104,-0.0077204204552763,-0.0033745386487802,0.0045126325501391,0.0043352212406272,0.0030879733455209,-0.0009610205207111,-0.0014787572351989,-0.0050514892097076,-0.0042110306385684,0.0014230137540723,0.0030132017924504,-0.0003366449315395,0.0036476048193076,-0.003218668402661,-0.003943393014126,0.0067311128072452,0.0085525686327622,0.006275346889333,-0.0030138731396567,-0.0155699176515654,-0.0213713790569491,0.0003970142615022,0.0076231991422398,0.0200861569878494,0.0160783341488361,0.0039004862913837,-0.0143684192519997,-0.0007529199296846,-0.0109378335319072,-0.028377008070468,0.0071883076625845,0.0154422738641671,0.0107718740882898,0.0139372434269417,0.0034715565997044,-0.0099550761403971,-0.0024849179526217,-0.014811565545429,-0.0245328027321609,0.0137169862679048,0.0225361576171345,0.0078227786982329,-0.003754770051916,-0.0096182293943658,-0.0032111197796753,0.0096742868987067,0.0085269651292332,-0.0049084740889092,-0.0211505236319115,-0.0172728986993081,0.0066978642999685,0.0203734689521134,0.0203743594150116,0.0068254275141886,-0.0090196511120985,-0.0156661030546753,-0.0019567737360695,-0.0056671379209396,-0.0126212843049394,-0.0021564165571162,0.0104669023288887,0.0160164847448167,0.0139255242649627,0.0036725782376227,-0.0107922900073097,-0.0085033608697338,-0.0029932941251745,-0.0081294585038685,-0.0178226622500164,0.0012574896436657,0.0184569536910633,0.0178421105510784,0.0086573473201787,-0.001241145346665,-0.0047173001923618,-0.0116097538276949,-0.012875259496483,-0.0093937874869469,-0.0016028319185761,0.0108880008123134,0.0165769743420235,0.0080651800637223,-0.0045981637101298,-0.0035399091193369,-0.0028650226314885,0.0023805392552029,-0.0067996547235425,-0.0083446821156237,-0.0068876261586505,0.0049454689510865,0.0077167430532026,0.0122630721340483,0.0071041388363669,-0.0036359112705783,-0.0131475167211432,-0.0055018948042598,0.0021539906445668,0.0026206308063376,-0.0003419553180994,0.0003043902755723,0.0001010980414684,-0.0012864441952238,0.0012136744776971,0.0040498967257896,0.0021721345724378,-0.0055315555541151,0.0050229359295254,0.0043805351171676,-0.0030299463853732,-0.0064081425792912,-0.0083137575777472,-0.0042543284073478,-0.0002516930642899,0.0070265100503059,0.0126921305381406,0.0095563981320514,0.0078416025612347,-0.0050999202990991,-0.0204862733037816,-0.018236813364861,0.0006314790599158,0.0049805536971419,0.0099917592662195,0.0091402770560717,0.007029461545936,0.0043026977559913,-0.0017538352961434,-0.0054245455476882,-0.0104291457572237,-0.0141384301945176,-0.0076710873809091,0.012710321110498,0.0141569554678759,0.0084733156233876,0.0061422117105416,-0.0032370321123207,-0.0101816291038331,-0.0132634806207374,-0.0072095222050539,-0.0008420994421183,0.0084236664486752,,,,
0.0111007717216361,0.0034687476218271,-0.0040655389919872,-0.0114256702326201,-0.0119861522118122,-0.0073552225598167,0.0042201371984562,0.0065217421745787,0.0077680017256491,0.0071162063737292,-0.0001058165826133,-0.003056341285332,-0.0029577097834727,-0.0037292096588219,-0.0028751565476558,-0.0010024163526196,0.0009832324948149,0.0022585207696093,-0.0024999163577078,0.0010277791592477,0.0037398534321466,0.0038039470466059,0.0017581901556257,0.0005522723803631,-0.0021253969242246,-0.0038230312915002,-0.005212476205873,-0.0090484211561399,-0.0011346509966048,0.0092732082510001,0.0103388207779184,0.0068995673914257,0.0006540244880437,-0.0041154298509121,-0.0079704201449946,-0.0075879892063459,-0.0019395532107415,0.0002872453293614,0.0040343542511757,0.0053300212825563,-0.0002630919836694,-0.0019057844528863,0.005943245798877,0.0060248913777037,-0.0009948974597243,-0.0060462544217941,-0.006686891615085,-0.0047703337640388,-0.0006137726549358,-0.001814131946192,-0.002184737898723,0.0112559536483318,0.0114455226980079,0.0054622457478658,-0.0004543649353236,-0.0037063124972834,-0.0075745670004224,-0.012504882869155,-0.0095587017388121,-0.0038080248528499,0.0017291982394291,0.0134178290056941,0.0179520801576916,0.014213431934674,0.0050112979064917,-0.0058963522942006,-0.0182065299647685,-0.0221974149329404,-0.0189263331329887,-0.0017931111916076,0.0143413166860181,0.0234344916444533,0.0198427393087626,0.0116291646571976,0.0004639115957558,-0.0121558616801306,-0.021417942110052,-0.0238314523380799,-0.0089490279788481,0.0034825755853649,0.0161738615487229,0.0214671704774655,0.0161540321524342,0.0002683066271275,-0.0108496201724235,-0.0096317800042525,-0.0081361544741453,-0.003650590659315,-0.0016256464317238,-0.0006241694971902,0.002403931234787,0.0043317562301549,0.0038907540894706,0.0042516299841721,0.004967297088722,0.0048432650309656,-0.0029102973355331,-0.014075503826565,-0.0143595461670021,0.0040596697905802,0.0062102747017909,0.0083549209297012,0.0062032779570625,-0.0002835588780374,-0.0018286455147524,-0.0038720174497297,-0.0041042860894818,-0.0025080776203111,-0.002053803898912,-0.003121807158841,0.0076480663433214,0.0096433296968227,0.0041794890765045,-0.0023675693656163,-0.0046205102324668,-0.0086537318016674,-0.0053524874078583,-0.0010814075320314,0.0040893794763966,0.0014061060901007,0.0037120239346746,0.0079368073481994,0.0055494076350803,0.0038373761027832,-0.0041962483737372,-0.0121750983896763,-0.0159914333804714,-0.0083710714622079,0.0100651662868846,0.011492820135464,0.0105364422627168,0.0126697411617177,0.0004498181873411,-0.0133195082338259,-0.0102422785278946,-0.007455274483373,-0.0140036618594818,0.0230217871448991,0.0094743546160896,-0.0157815629203251,0.0143550962898029,0.0048604578226359,-0.0127262252175309,-0.0046596035566685,0.0114152914486322,0.0029145376936641,-0.0039919671130118,-0.0166314312502281,-0.0037709576845236,0.0115608860851319,0.0089629146519522,-0.0049653900871665,0.0133140000747874,0.0010788370159313,-0.0071961618593049,-0.01862398846887,0.0014495889168045,0.0019227689067996,0.0053771570972616,0.0083334554813021,0.0022674753610434,-0.0077002136811105,-0.0179797351029826,0.0258392788679631,0.0129077047420157,-0.0066446038862558,-0.0091829255940581,-0.0249390199155145,-0.0027392610336541,0.0081367092805631,0.0257877627244634,-0.0082867699187286,-0.0030547458022876,0.0171422337915686,0.003384018759933,-0.0199147620777068,0.0058357665494202,-0.0115166269604863,-0.0200638874301316,-0.0019318091157011,0.0129372429790701,0.0140610027043382,0.0291015031021271,0.0142968159517253,-0.0172190039810263,-0.036393607817903,-0.0276595940500561,0.0236898878025749,0.0119241863492346,-0.0147175698459526,0.0083380248766737,0.0264558287931374,0.0231153075627149,-0.0129108942502358,-0.0475714223390329,-0.0098552263625408,0.0234403941006093,0.0031549522239366,0.0014977988953442,0.0097543228351134,-0.0002875616034257,0.0080329132063785,-0.0299635249204068,-0.0078695436509273,0.026105639341608,0.0152999041176944,-5.953645984436577e-05,-0.0167834084821654,-0.0117308370999574,-0.0226843896741891,-0.0013741616064524,0.0451870337275269,0.0234325030888304,-0.0164049388743548,-0.0099712055778508,-0.0060361137267109,-0.0099702763694769,-0.0145707909703622,-0.0005491381518858,0.0105962781551516,0.0116740086969959,0.0005523511574972,0.0252967738461177,0.0093670481394792,-0.0124930682529903,-0.032335380233986,-0.0184569147319239,-0.0037586936565897,0.0027876367386866,0.0272565678883601,0.0227772843670666,0.0033045553383043,-0.0081500741380435,-0.006409196193246,-0.00097003333239,-0.0173543651878665,-0.009621207280144,3.480432514005555e-05,0.0037084122813653,0.0101250537831123,0.0180346330651171,-0.0021949312706184,-0.0078719539959566,-1.2409451011498654e-06,0.0046716216394533,0.004030003860248,-0.0105230384398022,-0.0255190380899003,0.0021590089410225,0.0147517303835259,0.0110431808771162,0.0125790906836128,-0.0011594534551163,-0.0179851063178426,0.000112963226619,-0.0076283047783555,0.0013469991990276,0.0072959592259612,0.0133076054170381,0.0025405773831004,-0.0117707592742717,-0.0156857095617796,-0.0003167739362987,0.0082001022015417,0.0022616173443803,-0.0019692762073707,0.0071734726932258,0.0124803025992596,0.0061925897511243,-0.0102654089460365,-0.0241692697396877,-0.007804290439609,0.0115145943730929,0.0138906579283335,-0.0063865914455469,-0.0057379134055618,0.0082195235748779,0.0059981068467817,0.0028625049571323,0.006662124778712,-0.0026988000008111,-0.0133778106843723,-0.0245025535171865,-0.0007603402413774,0.0158048614710223,0.0195156832553587,0.0051271712646594,-0.0077803086143667,-0.0075614548510762,0.0019452628395846,0.0002564150744659,-0.0016700838747745,-0.0022618251565967,-0.0007298198338646,0.0005504530668511,-0.002320538842015,-0.0035366721341243,0.0030149151644235,0.0081699073741109,0.0109847995727924,-0.0082055235332424,-0.0081786252624396,-0.0013258404134212,0.0045683709019797,0.0026846616151952,-0.0037538639110244,-0.005744680304411,-0.0020555344296416,-0.0004954044388384,0.0021504795408948,0.0134189502910611,0.0053842035587134,-0.0027599750892431,-0.004346454493886,-0.0054081753307008,-0.0105878411425327,-0.0010693547691932,0.0123545641665487,0.006722401609759,-0.0137483561500031,-0.013488364106616,0.0161416530615577,0.018756508088604,0.0092792605809225,-0.0083475722058997,-0.0183833309610351,-0.0134347302113558,-0.0046892245821643,0.0102597021816943,0.0107493709194663,0.003716272774617,-0.0094296729814409,0.0110093621533475,0.0152187871408638,0.00025874688798,-0.020239721584164,-0.02901571197588,0.0021204622493277,0.0216015865004641,0.0178308128865041,0.0026038058679362,-0.0096589621013988,-0.0112089571708548,-0.0117253078230591,0.0072227207094385,0.0159909524450458,0.0081541734290563,-0.0035963589687161,-0.0116728166355955,-0.0062135197285682,-0.0022244045636151,-0.0034891589473571,0.0026903567838921,0.0095318628248116,0.0063346164183095,0.0058620005144853,0.0003414891630547,-0.0023807837567104,-0.0120613002438848,-0.0102266578780301,-0.0022471444703231,0.0003636778107106,0.0071723009527265,0.0112648083011187,0.0113896814582852,0.0025341502120189,-0.0093706555236421,-0.0131774303954243,-0.007123268264387,-0.0016304725250931,0.0019996283794318,0.0083876720956004,0.0064847129755336,0.0043154567506082,0.0004021551931903,-0.0008118601173769,-0.0058502267353118,-0.0058535093452047,-0.003690376009976,-0.0007945574821544,0.0027104774279305,0.0055223818897568,0.0025762234881393,-0.0008720224439754,0.0013219753968753,0.0025950981747354,0.0023450977085706,-0.0046648607878481,-0.0092882070809156,-0.0033890490981043,0.0034725662432579,0.0034534191375937,0.002102786118107,-0.0002551217859415,0.0038819141291056,0.001157219536284,0.0016682655580796,-0.0004739012212205,-0.0006336366317053,-0.0065567398473733,-0.0052710944758159,-0.0096154014236197,0.0009084267783401,0.0153648795796199,0.0141288990999499,0.0023318470003823,-0.0043635588486106,-0.0091737887669758,-0.008511898015461,-0.0069557841066824,-0.0004850157974309,0.0064274595448343,0.0091209302084589,0.0057349964932509,0.0006867286904823,-0.0003272986477622,-0.0050769512947309,-0.0110888652304575,-0.0017473090085015,0.0045767162300453,0.0051624512633353,0.00331657242228,-0.000724154786722,0.0009481624944296,-0.0024416130719119,-0.0027888725526967,-0.0012631144747701,-0.0011544040709903,0.0010434114473777,0.0023449963410636,0.001228643383025,0.0052752125773268,0.0031890962745775,-0.005398794079659,-0.009237756429787,-0.0077813349483584,-0.0001214162751628,0.0081949826928202,0.011093517908655,0.0115068558766898,0.0055126715783571,-0.010038797770481,-0.0344604030623897,-0.0124818050228855,0.0237829395572465,0.0186212366485919,0.0047960482213034,-0.0030148894684694,-0.0069449880682221,-0.0042954176061136,0.0011205896482076,-0.0005383966698114,0.0008153863528331,-0.0021278084684665,-0.0165182796300283,0.0106071609665931,0.01574129718663,0.0068117464632506,-0.006171176100375,-0.0107680678892045,-0.0070693373048009,0.0036649139387386,0.0071533263508098,0.002227138321364,-0.0002982206832763,-0.004725427502539,-0.0042177949812787,-0.0002908248908331,0.0049724796472261,0.0023518019776519,0.0008292032991044,0.0029149013439644,0.0001845110662362,-0.003425439273818,-0.0064077555999143,-0.0057727811394492,0.0034596236121618,0.0061736136771757,0.0037334247948769,7.971947164952604e-05,0.0020126599673014,0.000715705525082,-0.0024978394864029,-0.0068831199363569,-0.0102004154885064,0.0010497780517218,0.0105892963349877,0.0101894710851099,0.0018206247120932,-0.0009701282203236,-0.0056596480173713,-0.0069339445696458,-0.0033452970532672,-0.0024193065145411,0.0010364866821859,0.0038062326177633,0.0059677832470352,0.0043339797603166,0.0068185987928831,0.0002715767941556,-0.0113135165363709,-0.0101415145698638,-0.0056941683920171,0.002094796913812,0.0054562991063742,0.0111567526752127,0.0090893351154027,-0.0033105292172418,-0.013242931594989,-0.0024906168388076,0.0036009443901385,0.0031372136109463,0.0001317809212401,-0.0023377258967717,0.0009004788830365,-0.0008534855055654,-0.008168594292759,,,
-0.0015706512764102,-0.0056926556416867,-0.0034602809515181,-0.0032883189707152,-0.0006241643201386,0.004959054988077,0.0056657338091768,0.0043939757851515,0.0032029297437596,0.0065599233290103,-0.0022353277731534,-0.0107029422614933,-0.0128431644830195,-0.0117010262435923,-0.0017708880419566,0.0126658102702161,0.0174808825412144,0.0138470148896466,0.006807942646134,-0.0076046583622148,-0.0174017379944462,-0.0157089690952226,-0.0081901839406204,0.0028831707008067,0.011327283416876,0.0105438799798478,0.0082549167416943,0.0015385881878025,-0.0015579278802623,-0.0039082247660397,-0.0063432763280302,-0.0080575217999411,-0.0050311322727977,0.003241384871606,0.0068413205942141,0.0038298888092204,0.002944300897082,0.0007280828147131,3.0109481483280945e-05,-0.0005337206771604,-0.0036302945462661,-0.0039456074512829,-0.0037046067254368,-0.0008532250006201,0.0013276358851161,0.0063697888880871,0.0072600975204717,0.0034661801590326,-0.0023310235803929,-0.0079457607543118,-0.0099382905469125,-0.0009358857343497,0.0029805895809338,0.0042299327111087,0.0052015858271055,0.0016519684998252,0.0037929848903436,0.0017519887218911,-0.0012316166115538,-0.0076590705968579,-0.0095433637394698,-0.0034287512694682,0.0006539307743508,0.0046429081794773,0.0067402515981622,0.0094774614640826,0.0072899012727652,-0.0022455097852777,-0.0050024374488484,-0.0098809693401804,-0.0106072247888687,-0.0092737091248368,-0.0029902525803315,0.0120833880064001,0.0224585287898066,0.0153065290416734,0.0026235472085514,-0.0142627894650435,-0.0227512837266284,-0.0158177250517846,0.0008607543821617,0.0087874171925798,0.0158720355300375,0.0126301138303771,0.0054034020811471,-0.0076559222526927,-0.0122291619459451,-0.0099822194752681,0.0017956763292848,0.0038989472471394,0.0019010252284682,0.0022056377266359,0.0017343280615595,0.0042725015314961,0.0028974473079595,-0.003326516965059,-0.0060467234752109,-0.0074726836946584,-0.0027781410380931,0.0031119470247936,0.0087469084269861,0.0086434506902203,0.0028070758551475,-0.0022798846142607,-0.0064423618036175,-0.0117977450402161,-0.0043083630227471,0.0053006726307081,0.0030313497912262,0.0037614753464006,0.007104341721389,0.004046191549443,-0.0032848482116795,-0.0101041315845597,-0.0059731769580541,0.0067110185194742,0.0090065317108945,0.0004614569362833,-0.0059857858174992,-0.0085642659616173,-0.0028639368562564,0.0001794951436509,9.36138736371356e-05,0.0104200537564101,0.0128502763806133,0.0070025335764985,-0.0016026236708706,-0.0088405197978683,-0.0153271125323519,-0.0178365141788647,-0.0094610251973523,0.0124890657856738,0.0181015584780116,0.0164470234041957,0.0063493337070413,0.0041995397329467,-0.0026859594412856,-0.0120703845962751,-0.0171879642731619,-0.0177480449773791,-0.0191297976280365,0.0117411090651636,0.0326176625941833,0.0267510871620828,0.0120160082211358,-0.0113157689544714,-0.0186628097621407,-0.0228034849029668,-0.0074662006920515,0.0019541756108817,-0.0005481515658758,0.0122801801508937,0.0147888668116329,0.0120514549852898,0.0028433437781707,-0.0103136636496952,-0.0164645293095725,-0.0111175763555525,-0.0032311794027412,0.0056644732544914,0.0161111752866816,0.0126128584160679,-0.0030247695987764,-0.0035876315259173,-0.0043977716145285,-0.0157658357824709,-0.008428471615214,0.0067589006816243,0.0128211079404618,0.0106369181310233,0.0055410566832834,-0.0092787080148527,-0.0035781487736766,-0.0100020331137195,-0.0068055446517247,0.0123882599252442,0.0064659641068084,0.0001066912266638,-0.0130337251220583,-0.0067232789961664,0.0130661588510116,0.0038453618504983,0.0095538890748896,0.0081822612164648,-0.007164901042954,-0.0206473593788869,-0.0169071853101507,-0.0014896913620045,0.0247105838940751,0.0179425226203456,-0.0100750080409461,-0.0137570680286734,0.0081474347957006,0.0218001322839042,0.0003190050687419,-0.0206816098563605,-0.027846166906161,-0.0240677336979634,0.0175156310306215,0.0470341659385419,0.0313670833229445,-0.0028046248561582,-0.016235763688715,-0.0516530826819218,-0.019023255461702,-0.0012826016473145,0.0260970003663279,0.0382619980630686,0.0304062940147013,-0.0035074072604239,-0.0514560139602073,-0.0357722033084943,-0.0099471870247362,0.0435761500121307,0.0431418992323561,-0.0039122242096785,-0.0195067714862919,-0.0259273305669142,-0.0268915239951199,0.0076339473618957,0.0499028844632341,0.0249133827871801,-0.0153543007788973,-0.0110919476220919,-0.0619388718767897,-0.0105843553200294,0.0440872067789683,0.0511419801378375,0.00586880712662,-0.0297969462529493,-0.0257543191260495,-0.003979174289257,0.0001306398468692,-0.0025422642128732,-0.0078759456437001,0.0179051950419037,0.0362272655958276,0.0275184696215744,-0.0256408012344643,-0.0588901728955253,0.0004469429319937,-0.0013541046787062,0.0072579300351672,0.0162538386753221,0.0286429921215171,-0.0069870087261555,-0.0144621514703168,0.0179462385002551,0.0122882418563688,-0.0272932479013859,-0.0467501890202524,-0.0001556086913673,0.0177071967274118,0.0418556998287356,0.0138532240400546,-0.0193891423896618,-0.0312458597136458,0.0337851406530261,0.0233835264966156,-0.016892437175246,-0.0430084270145921,-0.0336888446066872,0.0203300609522063,0.0188329816910567,0.0279419268427197,0.0361822063385647,0.0049369701690305,-0.0177293882989166,-0.040502701736381,-0.0391201696232729,-0.0186473562970714,0.0227348679705901,0.0529929067529931,0.0360815657441542,-0.0117111163360447,-0.0296613843423718,-0.0072482966180872,0.0021703051976711,-0.0039761066211416,-0.008584517540745,-0.0247796354082007,0.0108232744332394,0.020124409418493,0.0304690197791662,0.0083797724797223,-0.0192538330549703,-0.0107624842132135,-0.0042096122115997,-0.0192252440204466,-0.0053775684806582,0.007550349737444,0.026880731346402,0.0165949856009992,-0.0333394588798819,-0.0057886738227136,0.0043776905959777,0.0227910960993117,0.0131286741853916,-0.0103273607609722,-0.0249868000637296,-0.017300571264484,-0.0017355111698427,0.0065814295400343,0.0231913329350865,0.0140883582245634,0.0074126032704177,-0.0010298767832139,-0.0156955347839578,-0.0142246192809924,-0.019024617269957,0.0011475831107223,0.0176434759903126,0.0121067260936562,0.0047774281111205,0.0017969676109876,-0.0095743926001573,0.0031873473068049,-0.0011839422962268,-0.0089014403480252,-0.0071658665704535,0.0047912796648805,0.0075610618841888,0.0004317767492088,0.0020345636265123,0.0022878071025172,-0.0075636123362574,-0.0025058921333439,0.0034993274008863,0.0034302067676231,0.0045967285643224,-0.0026938942328828,-0.013484036423407,-0.0034382031143797,0.0167227242883994,0.0086738462640204,-0.0029102689286426,-0.01234269240831,-0.0108129968553682,-0.0011471380927641,0.0069225338349531,0.0147709002704396,0.0087198546628442,-0.000951337924369,-0.0150716779541858,-0.0042806049266307,7.514768122917415e-05,-0.0025262753293477,0.0010322508218478,0.0010838720427394,7.84857575925865e-05,0.0053684488321913,0.0042660089959318,0.0024188349736677,0.0016117027572332,-0.0018434722367486,-0.0079380059842192,-0.006814932822849,2.4230578715149065e-05,0.0053447278655976,0.001135273697128,-0.0069582438773887,-0.0018883815715317,0.0098101883362337,0.0099444574052169,0.0098057406046093,-0.0034654922497668,-0.0112814597226798,-0.0119522123423178,-0.0126759801525095,-0.0016908948719625,0.0079900721989885,0.0118795673179546,0.013131162760454,0.0097467966833455,-0.0002455276032205,-0.0121325146601885,-0.013296804491637,-0.0104413416697397,-0.0040743952852032,0.0040172761776857,0.0080746527684281,0.0114221287196559,0.0097526505834318,0.0037448673708847,-0.0070121935962261,-0.0101604351579918,-0.0067399926277851,-0.0071664203562514,-0.002608005226885,0.0073894251748091,0.010155087998387,0.0063632116007886,0.0014720954148781,-0.0012734149469417,-0.0044626535744255,-0.0069622829119265,0.0001277634918898,-0.0039577763166857,-0.0043508588225312,0.0057090876718702,0.008448802115299,0.0051220113820037,-0.0024299152129806,-0.0021342130901243,-0.0054090267142926,0.001339377017888,0.0002000601201605,-0.0028328241243931,-0.0005019686950274,-0.0009218679559809,0.0019005444431165,0.0014153027086167,0.0062647240866362,0.0014555047373791,-0.0027169729490228,-0.0001498234968917,-0.0038492260408827,-0.0049171419353981,-0.0030034465569272,-0.0008215978596801,0.0023886969691772,0.007279809828333,0.0099794968304955,0.0046590794029098,-0.0037472960022645,-0.0120464199921727,-0.009138142351958,-0.0033870701904967,0.0009800953138805,0.003977638721273,0.0048682632103117,0.0081453447122472,0.008929480225855,0.0031211025999622,-0.0035397660282239,-0.0081625456993492,-0.0134396806683765,-0.0152038073930957,0.0001383585986509,0.0097972837375203,0.0131676687889438,0.0121575136126374,0.0091868664421454,-0.0003946113012297,-0.0060319557982858,-0.0138459977847988,-0.0156171225054936,-0.00599548719544,6.537355123553274e-05,0.0088375778450767,0.0115731950721864,0.0096950472716091,0.0082264063658446,-0.001128421058581,-0.0035842535139896,-0.0117015929238728,-0.0100247047363413,-0.0048659677696509,0.0012806407297279,0.0006341956935308,0.0060414938633308,0.010203748763835,0.0071750665944114,-0.0009028785218068,-0.0031330482672754,-0.0046144774293585,-0.0064059038473498,-0.0053970892052044,0.0051042304270383,0.0034386873230683,-0.0011709826858347,-0.0019515521523515,-0.0019567855297588,0.0023638630792364,0.0055169404158184,0.0035107867820012,0.0014057411492414,-0.0004933739893886,-0.0055465206263979,-0.0032500141886779,-0.0021381323079827,-0.002909684813296,-0.0021647061875081,0.0002215342789002,0.0035933619960328,0.0067445852965585,0.008203014030838,0.0066022750608522,0.0011456053573707,-0.0103270390776116,-0.0141706923324187,-0.0102460525774609,-0.0081821933346046,0.0076662633949493,0.0146781544606167,0.0151813445398247,0.0092044016315549,0.0008101436672174,-0.0059241350684891,-0.015331490386598,-0.016945884392408,-0.0077682883068336,0.0029006051361747,0.0134901317845789,0.0142967753758053,0.005042876387529,-0.0021759757389716,0.0007432730664558,-0.0033107042005995,-0.0034031587022362,-0.0053018138849442,-0.0052270250551693,-0.0053453746105563,-0.0033067437328286,0.007239308696165,0.0091336944545898,,,,
0.0124626213354474,0.0075453081254746,-0.0090417833430739,-0.0177614826473909,-0.0138944314437682,-0.0053446146655622,-8.41629932148759e-05,0.0081668454337443,0.0103382123868875,0.0061112789747387,0.0026357072503788,-0.0002351421482864,-0.0041324956840992,-0.0018889951761754,-0.0010518246295637,-0.0013606262197967,-0.0032858516141756,-0.0036607441265969,-0.0046477988712038,0.0054750353541968,0.0042415242772438,0.0018554392325409,0.0047660052369015,0.0039330110234981,0.003396273763074,-0.0061801339682261,-0.0110958533237485,-0.0043419710958205,0.0011506550981985,0.0032580862477421,0.0031746937182711,0.0031251399651912,0.0005079855176479,-0.003844478505274,-3.988660826739052e-05,0.003905356017561,0.0054447118675343,0.0042554818438732,-0.0036120637543722,-0.0090049417021415,-0.0109756954230352,-0.0085793658660449,0.0045286222850927,0.0136455743817737,0.0118776153718545,0.0049155224878056,0.0010063757636883,-0.0061123525851202,-0.0061845204534353,-0.0092106727187377,-0.0065383746982823,-0.0020456401333817,0.0027504471591619,0.0068201260056442,0.0107239021085473,0.0081184803501823,-0.0016085190862355,-0.0071566692330907,-0.0053151517735262,-0.0032344414696482,-0.0018065057916369,-0.0001975715189176,0.002856221869458,0.001784618806823,-0.0009533818012871,-6.105238374375274e-05,-0.0021866960135028,0.0027587887746925,0.0077178700595699,0.005553893951529,-0.0035562240365125,-0.0046294737930842,-0.0092451262643919,-0.0070789677171096,-0.000559741862923,0.0068224775430036,0.0061204975270759,0.0026855354380779,0.0046963918930543,0.0053695610881859,-0.0011504581294668,-0.0072430366937088,-0.0101370903728462,-0.0081404676689424,-0.0006759478916338,0.00566266724006,0.0080908245612282,0.0105185434497918,0.0060065465755541,-0.0030982131195479,-0.0074956800469117,-0.0114333477185123,-0.0074161468697643,0.0004526540169598,0.006310284783535,0.0100131854041643,0.0065104799099498,0.0018761979227877,-0.0032357900604191,-0.0067175949037619,-0.0089272303835175,-0.0037862550444867,0.0035973004890541,0.0069861247927362,0.0046196882172203,0.0049431490343389,-0.0022645754401124,-0.0066089432738629,-0.0041814826620486,-0.0007439975101622,0.0026998013883562,0.0013211962724061,0.0015372741745148,0.0014154073218812,-0.0032646693947293,0.003817082154321,0.0013243893949706,-0.0023352210358503,-0.0030786108132256,-0.0022966305434823,0.0003595594658306,-0.0005457813544659,0.0011611517225105,0.0044689620692702,0.0038277923038169,0.0021007423575793,0.0001053910963719,-0.0079263364122465,-0.0059616905042693,-0.0032700819471696,0.0019748026837322,0.0027143509880289,0.0009599993446003,0.0117094737603327,0.0080680927187425,-0.0032267983032242,-0.0112691376016887,-0.0078159719469561,-0.0057618754117291,0.0007179687467814,0.0046124656468127,0.009729231816528,0.0044022408264478,-0.0093372262152967,0.0048339681202002,0.0105354194431097,-6.078798674518992e-05,-0.0103244862657734,-0.0129772442874639,-0.0136285059570544,0.007389649246541,0.0182774356491626,0.0071201719397436,-0.0066962245246696,0.0121561371382608,0.0015058806835355,-0.0126083016694391,-0.0115981068685621,-0.0006165636944132,0.0018914837924029,-0.0027806759160999,-0.0088867394437468,0.0144624682354048,0.0202701955050873,0.0080342191551452,-0.0103845815014775,-0.0087663907740164,-0.013951890283478,-0.0090964991605721,0.0039309308838647,0.0142838305352116,0.0084692067219819,-0.0100964499486664,-0.0061883837815749,-0.0017110202835373,0.0029307983530902,0.0253381132018172,0.0235956618260705,-0.0105732722950624,-0.048836052336641,-0.0322910339866715,0.002609343206087,0.0282737357712879,0.0275615558982978,0.0257901134685337,-0.0007003393722424,-0.0141316514920324,-0.0172268567228916,-0.0038980082923399,0.0033141132768,-0.0325470793540675,-0.0198706866128872,0.006840531111887,0.0497204634905854,0.0444831544389501,0.0078394617840242,-0.0276379918142391,-0.041337709340932,-0.0221037969515985,0.0071711799271689,0.0067722575823671,-0.0013076617423031,0.0091989048111139,0.0250260687000879,0.0082665030981627,-0.0010918214939344,-0.0040681584522343,-0.0136210480182046,-0.0111376969694265,-0.0038124273533167,-0.0129564530831094,0.0013920840293601,0.012741527937084,0.0121947272143375,0.0141063297439557,0.0056731067340959,-0.0038281922872635,-0.0085841233080052,-0.0091794141014497,-0.0243870832087047,-0.0031290895823284,0.0184421368676312,0.0145534937482817,-0.0080068256992514,0.0065383862606339,0.0089699796989553,0.0031956357756151,-0.0203513486832786,-0.0099685974014679,0.0105135854402265,0.013361647933587,-0.0076202196062448,-0.0173016735827059,0.0062908450905839,0.0029150950626296,-0.0005011095664305,0.0171047200118448,0.0073136492053593,-0.0131185680722664,-0.0143001007562302,0.0009580997438985,0.0011790691428214,0.0120730086738036,0.0045086700613761,-0.0050743817515223,-0.0174035192355307,-0.0035565888092459,0.0065491277007014,0.0126215363485072,0.006266604633917,0.0066224970204633,0.0033772781846659,-0.0129194269674654,-0.0258643924908287,-0.0023533887083769,0.0116575780005049,0.0126733202704625,0.0046737455244226,-0.0013095942627721,-0.0094550516112829,-0.004949491240224,0.0138446056219366,0.0154536177105543,0.0028229520667819,-0.0189296375601237,-0.0404869307557106,-0.0005795426772293,0.0203402825252691,0.0266369168655501,0.0095155116170359,0.0061878023448263,-0.0116778296363437,-0.0087265483812126,-0.0146106246259774,-0.0122406318181381,0.0018331557012747,0.0070822380693595,0.0174341673175161,0.0075944902354127,-0.0051113313775509,-0.0020001821956185,-0.0061846098597615,-0.0067685855420335,0.0065837487592527,0.0049794990880061,0.0062373100950318,-0.004649582667698,-0.0166912559914598,-0.0142478440504262,-0.0006388753603358,0.0213319206562658,0.0266463466532056,0.0121134578456727,-0.0094567261516472,-0.0247435845705512,-0.0226195253687627,0.0007252961759854,0.0049778010682157,0.0093828409113554,0.0083135111691571,0.008849567494113,0.0029186290344253,-0.0033461759333247,-0.0090834675011121,-0.0048008683868731,0.0078327039015354,0.0006643684069307,-0.0058893560271672,-0.0098296571842864,-0.0029916768639663,0.0050400586284522,0.004272403908073,0.0120573074243327,0.0119030203018519,0.00387357349305,-0.0099082920085895,-0.0228074435674072,-0.0160991864470689,0.0069938396348063,0.016305290126672,0.0120383060748996,0.0026785889576237,-0.0043401588267204,-0.007802294480228,-0.0075887269800109,0.0020807464060544,0.0080984017997746,0.003277012866625,0.0010741729293524,-0.0054593013209799,-0.0079249736614853,-0.0037486043211233,0.003619580706141,0.0089911192859603,0.003801835282381,-0.0027906784303378,0.0004377276709351,0.0022566719292796,-0.0002864135598346,-0.0096928153642381,-0.0153878172659888,0.0086943383320908,0.0132687743696436,0.008864554087445,-1.0197019989920513e-07,-0.0046397813958461,-0.0054110217210454,-0.0093557020422355,-0.0037150086374187,0.0039946565565238,0.0071083014817444,0.0049192513806511,-0.0009436193435836,0.0003113118466954,0.0032514305289527,4.545811236874544e-05,-0.0069710779467776,-0.007528331630256,-0.0014861327952481,0.0013569086025705,0.0019013532836126,0.0064995605937498,0.0082263721790718,0.0020024227477689,-0.0037040092789374,-0.0099458271334116,-0.0020414414222105,0.0025671775161679,0.0008376930622477,0.0001079732969724,-0.0057049742722137,-0.0017529685030182,0.0013044532523836,0.0136482452085149,0.0100715469808347,0.0024271665272177,-0.0087966443675847,-0.0171249744597309,-0.0124503549596829,-0.0043782848956383,0.0103539555913459,0.0163952017177046,0.0168909398439434,0.0054148306264597,-0.0117387374101836,-0.0158439846056203,-0.0101582487094911,-0.0059211988855916,0.0038038691353183,0.0096984824518995,0.0117180535076025,0.0078677172395691,0.0004626858228428,-0.0062652019730998,-0.0121182049547365,-0.0048566635690334,-0.0035469140168761,-0.00042674501434,0.0036458447225357,0.0109525970810267,0.0113018377562851,0.0039830493966009,-0.0055273366104414,-0.0117130540421157,-0.0107669566808007,-0.0055652614278081,-0.0007032135170191,0.0087527757814078,0.0110100377738293,0.0107556032098995,0.0037428644871794,-0.0063647474223825,-0.0084929088739305,-0.0094229233060665,-0.006487110472416,0.0021150886259552,0.0030834778217056,0.0048913830743406,0.0043576131554844,0.0064919642678153,0.0024534892742227,-0.0014974966138236,-0.0041031054885926,-0.0022344564871666,-0.0057624633736646,-0.0085233031621842,-0.004680919650577,0.0092862230746597,0.0111660873714966,0.0036219312479491,-0.0003237638322179,-0.0013551350298173,-0.000122629271498,-0.0028694175243666,-0.0048002078082449,-0.0048221390300519,-2.430871898218116e-05,0.0009734363842523,0.0027564075518441,0.0032556798776857,0.00328540412074,0.0010289205082928,-0.0036037728489169,0.0013022019235087,0.0030880162981815,-0.0006269765318139,-0.007226316016581,-0.0012358426097543,-0.0036141974532689,-0.0017525961835512,0.0040569876686144,0.0079794224320835,0.0036939718357907,-0.0002222907771741,0.0011734143242369,-0.0033004996771656,-0.0042389479843355,-0.00493975810832,-0.0027060977110994,0.0013962797174949,-0.0002835216153191,0.0039162783958352,0.0025789303904617,0.0085688731608893,0.0025333383319824,-0.0019950891775871,-0.004378311573365,-0.0081168597021836,-0.0068685834608712,-0.0031680064326486,0.0021004767552138,0.0068585569212911,0.0104001649060709,0.0061039227029888,0.000916975752474,-0.0009568379783559,-0.0082424985004794,-0.0110947503121726,-0.0059233762103192,-0.0010490444483205,0.0052766867008209,0.0078051113280821,0.0063106049431404,0.003356301857798,0.001819768445756,0.0028364447587372,-0.0069894440939195,-0.0096108087501292,-0.006939333800083,-0.0020156015692619,0.0012120964235022,0.0053876701642632,0.0085805215013282,0.0050984496375835,0.0004307951493532,-0.0011038708055649,0.0009748134139407,-0.0032551840967976,-0.0055408108247463,-0.0088763823258421,-0.0052969122540059,0.0031962585920608,0.0078659543158482,0.010018168752054,0.0041020055024584,-0.002442333308872,-0.0037028346326218,-3.4307742049463124e-05,-0.0010828133906557,-0.0080953613559325,-0.0037352937190695,0.0010173245235722,0.0040862079489263,0.0008338511477901,0.0042557855075138,0.0040901769424211,0.0012152313678758,-0.0001844327370272,-0.0034270958854567,-0.0050283536842795
0.0045905709716383,0.0109997832931567,0.0087063042988063,0.00403436904127,-0.005282189322878,-0.0124843614252605,-0.0053698233873214,-0.0032659036848257,-0.0043822736826829,0.0007350804292189,0.0055216071621661,0.010088148764103,0.0075905580595833,0.0094727078389437,-0.0001867818304011,-0.0090863222647736,-0.0146127609555669,-0.0128901874304127,-0.0047600019882244,0.0046247421174903,0.0091839784638374,0.0137476704602533,0.0127500577945084,0.0033115667439342,-0.0067485789305536,-0.0117530252283621,-0.012304838738751,-0.0058342230589338,-0.0015768672092502,0.0051625005600969,0.0116963892534096,0.0090196201026169,0.0024587797488016,-0.0013681480425087,-0.0067282547904647,-0.0035777823761761,-0.0028753976569218,-0.0032977142962985,-0.0031791767302499,0.0011569641472707,0.00447272618312,0.0087908421537921,0.0042204853707059,0.0018086439327912,-0.003822494525177,-0.007848389439231,-0.009940915054599,-0.0025850056611022,0.0058262412305281,0.0073230405727111,0.0046648064353068,0.0024924845722795,0.0001383774362341,-0.0023761122135031,-0.0029240196856859,-0.0056670952065075,-0.0040471936721556,5.787787832534788e-05,0.0025292571052046,0.0025023387757906,0.0051515725501385,0.0041478211991103,0.0007269267055311,-0.0020427313814816,-0.0014657575851051,-0.0050310395981507,-0.0051864294793692,-0.0043493985424915,-0.0001444232204649,0.0066417755077018,0.0103421605617653,0.0046686839752853,-0.0010769966041392,-0.0063224927898271,-0.0042015773524339,-0.0045409425902597,-0.0008540308263512,0.0015013118487283,0.0008269660040928,0.0018152895140461,0.0051772771791673,0.0008079088972499,-0.0004282429239337,-0.0017034554902901,-0.0015243522572706,-0.0017058262658377,-0.0002933323690581,0.0015296619682502,0.0003235022193007,0.0002659967840549,-0.0037275118034243,-0.001376658031396,0.0008069945400008,0.0030167425760328,0.0052515017279836,0.0018041081032221,-0.0002407049140988,-0.0005635982621449,-0.0031791234058253,-0.0095056936799001,-0.0069972756283171,0.0015839258320248,0.0100114295777035,0.0096255853147916,0.0065422659820576,0.000570404106708,-0.0071657246238715,-0.0121874440615191,-0.0073656285007307,-0.0015136783312915,0.0071614231326322,0.0089861685631619,0.0035568995441191,0.0034914506982962,0.0022575522406681,-0.0052040858405647,-0.0104478888661276,-0.0031057904372319,-0.0015372550989549,0.0002260502674657,0.0015543772299389,0.0056136127631906,0.0097370056045442,0.006139806008299,0.0014673200820596,-0.0059257511854709,-0.0127578627194186,-0.012403137791727,-0.0053736528622669,0.0035998941118445,0.0087688426229224,0.0148448775824549,0.0130347685588249,0.0061573662023733,-0.007021775931502,-0.0175487665753335,-0.0217213085119177,-0.0033657009205881,0.012389612152028,0.0072107482682235,0.0077066510909756,0.0029700523721763,-0.0011944247505749,0.0101271128237644,0.0007354884627555,-0.0120778500780469,-0.0217201690405017,-0.0067717664517303,0.0182804771593586,0.0168023626647449,0.0037158777355486,-0.0080019620239382,-0.0176344304443862,-0.002819712996741,0.0212536483116331,0.0086149177136944,-0.0196103310016831,0.0053971469379389,-0.0010649968623719,-0.0165781408731767,0.0113022968605532,0.0197997039402597,0.0015578197401188,-0.0155542675539656,-0.0237980373018306,0.0045468350351817,0.0128486816610147,0.0184552959360764,0.0157559950546045,-0.0041738464782936,-0.0268111255344242,-0.0330505769911307,0.0004657760249456,0.0281661697939909,0.0252938785126241,0.0115546683638892,-0.0016126496375021,-0.0325130783491762,-0.034603332631123,0.0200296536090447,0.0286482301548703,-0.0008641047432415,-0.0037448775804906,-0.0049851451513502,-0.0076528413717597,0.0055069324304999,0.0197132729256702,-0.0158981499090981,-0.0091259681766357,-0.0010679422404278,-0.0080425644931521,0.008812028370965,0.0192114321406998,0.012459945048874,-0.0009605240200461,-0.0586648978817583,0.0093340962366163,0.033871686533818,0.0099199206050022,-0.0192252276972875,0.0077469264341485,0.0066508943499246,-0.0150859692442248,-0.0151339890366627,-0.0087544901873648,0.0151909301145506,0.0158358331682455,0.0103094392127707,0.0223185548448212,-0.0201779542651147,-0.0252142561086527,-0.0093543746503356,0.0146668997979278,-0.023338394646032,-0.0261832964481319,0.0433089704500589,0.0385549091108893,0.0213990733177414,-0.0036674212811534,-0.0271541174629133,-0.0401494558121246,-0.030787449516708,-0.0107733384799209,0.0275376741655442,0.060816383738716,0.0218460639510462,-0.0203052679573688,-0.0166988053951719,-0.0023914186002811,-0.0217865221255017,-0.0051635524543559,-0.0080595884874491,-0.0095422109851285,0.0345576628697207,0.0260105135585123,-0.0008377897143959,-0.0002611180662161,-0.0118677940894647,-0.026866675337406,-0.0244705037660684,0.0184862686788421,0.0231688241357776,-0.00068792142997,0.0112642038522978,0.0079847565341094,-0.0072045145283429,-0.0092195761801733,-0.0102866609564917,-0.020195790831105,-0.0069821116343799,0.0283881080858807,0.0048502606126158,0.0139297578167954,0.0099684426651154,0.0030013678274212,-0.016953687955644,-0.0239161540002956,-0.0130401166579342,-0.0027095130980198,0.0052746980713071,0.0213616002577992,0.0226291684815972,0.008489627718952,0.0009482571315659,-0.0069246923097047,-0.0280711684004983,-0.0302935744757223,-0.0242896657411626,0.0334190415895667,0.0473349468040346,0.0191991125365391,-0.0001596275384615,-0.0202400946049863,-0.0298208371161698,-0.0222361480536236,0.0013852014142256,0.0201281310197522,0.006301003762652,0.0136064401352352,0.0135122515671547,-0.0070053782926835,-0.0046944133037497,-0.0005863309135043,-0.0203373236314855,-0.0139835719600933,-0.0111928727222302,0.0209236658329352,0.0313451436254873,0.0126240538629576,-0.0065962187639001,-0.0210565615056298,-0.0100040158490514,-0.0003174074195037,-0.0039632977697576,-0.0029053359028863,0.0085056033752859,0.0053872955357672,0.010798057725404,0.010890924627942,-0.007560520977061,-0.0088940176098328,-0.0091169762747004,-0.0201624465016633,0.0064534094500023,0.0139983807637873,0.0163394088011928,0.0009677174339609,0.000436918146616,-0.0002837714664741,-0.0230221804003567,0.0025756363943323,0.0035704200357685,0.0047577594489279,-0.009944072443337,-0.0168942521848872,0.0154293999544887,0.0345473114288796,0.019967852044597,-0.0093425075945696,-0.0430620981970681,-0.0324976987838098,-0.0009355068216805,0.0251480107421615,0.02925632419656,0.0110853157587603,-0.0030203245305524,-0.0075087473632921,-0.0123864067065859,-0.0074661409134853,-0.0009894087973932,0.0032403800661993,0.0014548597573382,-0.0040841452470908,-0.0044265723144551,0.0053442305579711,0.0143470780863863,0.0110362103740925,-0.0028905089103289,-0.0117831898051378,-0.0080280008106157,-0.0061086122432325,-0.0061279701711845,0.0054542180490087,0.0113312173470743,0.0066786183623195,-0.0017778435236306,-0.0029428446122618,-0.0019728876045649,0.0009618709271673,0.0015401496753269,-0.0004113214807334,-0.0070243034084434,-0.0044817224142257,0.0033152447553793,0.0030457128828623,0.0052752958333751,0.0026265656955873,-0.0030325720206265,-0.0023705004031676,0.0001936296480534,-0.0013830405477443,-0.0013086880560707,0.0009057145674973,-0.0006286789899818,0.0018968034683327,0.0016043844858097,-0.0007161183820668,-0.0002116520419345,0.0023295064217746,-0.0026702746130888,-0.0053474820604977,-0.0016143362024465,0.0041426593044181,0.0059642772598903,0.0043984107046697,-0.0030512425749779,-0.003430894350076,-0.0021504157267933,-0.0030345778001785,-0.0046887896827346,0.0021079731786034,0.0062360847477491,0.0057419727982317,0.0018852882655286,-0.002315964157818,-0.0086741714374697,-0.002781777356521,0.0039462194655674,0.0063498814166071,0.0009937585372358,-0.0042531934587089,-0.002579673076862,-0.0023356270386297,-0.0020663401309517,-0.00263392415255,0.0077496810350132,0.0095898080525101,0.0053922361177032,-0.0029566205746396,-0.008328789606088,-0.0134264502934743,-0.0003815228271148,0.0031969950369496,0.0038401693574653,0.0027078766653661,0.0049813430237566,0.0051251467688386,-0.0006646301821481,-0.0043710222240954,-0.0022640985850811,0.0001420536576149,-0.0044192532417454,-0.0058352125982801,0.0013800663230851,0.0008175435432129,0.003089507133161,0.0061138485391893,0.005076902228523,0.0047031379363373,-0.0002207163472513,-0.0099884421628956,-0.0122993913251816,-0.0019337004744789,0.0025468537509878,0.006037542843128,0.0052813559527358,0.0034708952662143,0.0013387379058734,-0.0045570939046772,-0.0010293416318259,0.0019324479192336,-0.0003059735850386,-0.0032754075866918,-0.0044539070290952,-0.0026891121652287,-0.0002892594817742,0.0051789745495024,0.0069398326793562,0.0067422327563552,-0.0022865839871365,-0.005799235258135,-0.0060412306422396,-0.0029072112420438,-0.0001417834609017,0.0035631791249373,0.0032246587186808,0.0009304797918699,0.0001406155148972,0.0016683060060935,0.0006794821436866,-0.0024046533272905,-0.0040282662323024,-0.0025755887012203,0.0019313422726954,0.0040844881718131,0.001853590705299,-0.0021607521358089,0.0013847249489982,0.0008789428183061,-0.0037146872662765,-0.0042780081581482,0.0002084735497766,0.0050064674220832,0.0029650675626289,0.0003997883937646,0.000316345952353,9.941985194324617e-05,-0.0049940312673313,-0.0040577360986788,-0.0021243542480026,0.0012709629545217,0.0058829404088617,0.0067240480639655,0.0023552113936892,-0.0067291276486642,-0.001737165138054,0.0006163125435738,-0.0024919462490051,-0.0033457890878498,-0.0008001422743198,0.0005956059436637,0.0013442813483463,0.0005181848443304,0.0088848690923783,0.0070764104612592,-0.0019036924020868,-0.0080526712862106,-0.0046048994878895,-0.0034353685545631,-0.0056690128907721,-0.0018433822653274,-3.741681921658903e-05,0.0118407630513271,0.0124805131184367,0.0065265116983218,-0.0027389658138513,-0.0084564744497429,-0.0107028728088449,-0.0076697624731734,-0.0038943877118772,0.0034091534415361,0.0064265348738672,0.0046323101663826,0.0067407904023133,0.009381163748951,0.0012098298670905,-0.0069543254285384,-0.0107938500691166,-0.0124637169283415,-0.0034746779956353,0.0042783677455243,0.011210238014747,0.010552957321569,0.0034245748098641,-0.0009687775301594,-0.0091711141443124,,,,
0.0022629513622646,-0.0058187844973356,-0.0137255564029695,-0.0144925689400438,-0.0079021272186041,0.0041504640760834,0.0086076357515194,0.0095708320011451,0.0074386074511319,0.0028486028565874,-0.0035534861453425,-0.0031981310891871,-0.0052393688140115,-0.0066389044115136,-0.0043172410672768,0.0010231380615346,0.0037633008600666,0.0074281624770111,0.0023838715204439,0.0006199493077218,0.002196450662151,-0.0006692827384734,-0.0050457548272116,-0.0051403695832007,-0.0030819127189221,0.0015417770617074,0.000747766449891,0.0047349159470663,0.0051981054729384,-0.0012370722334372,-0.0038572169715848,-0.0023264774664492,0.0032197812947681,-0.0001997973917698,-0.0011408155452891,-0.0002688431930574,0.0024080018905091,-0.0024336310734693,-0.002138623138105,0.0012313695950735,0.0001816917541403,-0.0030475181277275,0.0027906036094554,0.0054184411468127,0.002238977770105,-0.0011354925479838,-0.006544543244081,-0.0009371113131933,0.0012991533701447,-0.000362383847124,0.0001984915530966,-0.0010176355968645,0.0002724742288393,-0.0008992278608174,0.0015141385107065,0.0043059449888056,0.0038989653210084,0.001326848604287,-0.0037293929542686,-0.0069878499395642,-0.0046052509302442,0.0002076578575188,-0.0003729870004127,0.0052758683244187,0.004359268526505,0.0034725255071255,0.0001109803699775,-0.00010639054569,-0.0031496079847207,-0.0048139707803682,-0.0017562644346972,0.0015945274270053,-0.0008751409486011,-0.0035527159756097,0.0042009141946944,0.0072686791990155,0.0013195080518572,-0.0026863339572779,-0.0007010739525794,-0.0012096744742506,-0.0037160032535015,-0.0014543828805529,-0.0003806347247706,0.0026711641761049,0.0018740859792328,0.0015946444304292,-0.0005509937371673,-0.0015149647750485,0.0020467857230499,-0.0009605042087467,-0.0003815922522196,-0.0009524506956433,-0.0007964373748968,-0.0029640680133662,0.0016449631724622,0.0028673281876461,0.0034528884400175,-0.0009827110760483,-0.0027065118107229,-0.00154669837485,-0.0004220473857035,0.0023816708394773,0.0011236454397874,-0.0018666453212174,-0.0009940896155463,-0.0023699581496591,0.0001056310841295,0.0040741698809734,0.0035948852875494,-0.000569700495621,-0.0019477694530486,-0.0001342931265678,-0.0001260930896784,-0.0042755127271786,-0.0034763154115164,-0.000780243732286,0.0036133161902467,0.0055824998225764,0.0055890910460786,-0.0035476521216225,-0.0037583617868921,0.0075660548127194,-0.002114994344412,-0.0074969373713945,-0.0085684284354093,-0.0049315182611286,0.0009594994421136,0.010156975732613,0.0126409067467678,0.0114674675028841,0.0004944998593298,-0.0090164814713223,-0.0147973087417269,-0.0108956835491597,-0.005723447428964,0.0017683446768001,0.0081812852620372,0.0120652930015039,0.0087890092431534,0.0077841763350216,0.0016659437090213,-0.0062797775288477,-0.0134574428365652,-0.0140816855343259,-0.0092672490260681,0.00071084516626,0.0104345801450714,0.0108398372595695,0.0141247639495705,0.0100839175728403,-0.0027901516108771,-0.0122962785536432,-0.0121145397944444,-0.0124693255667248,-0.0005824271109486,0.0061489807735236,0.0075484091441732,0.0046499117579028,0.0047542966227318,0.0023253150657399,-8.048151125306346e-05,-0.0046871096896558,-0.002729062574134,-0.0040389875474032,-0.0048534208047253,8.861350133730018e-05,0.0042705838501177,0.0063833804528342,0.0039883099675066,-0.0027372044128707,-0.0053049852297687,-0.0053881971547673,7.387039077422485e-05,0.0035814731156177,0.007009392302059,0.0043442726318937,0.0002225554922548,-0.0026540782923828,-0.0080966493539713,-0.007520602229342,-0.0056446851878267,0.0044591291287166,0.0092678926040596,0.0076251229949675,0.0065905159798022,8.223148629398904e-05,-0.0051197624276562,-0.0068310228393105,-0.0092705598057077,-0.0036887437979334,0.0003622336615115,0.0050058572396383,0.0080971940761214,0.0067096947416084,0.0018975172553026,-0.0018957747931053,-0.0048507278672214,-0.005822670864994,-0.0044910794766135,-0.0020463189693111,0.0026202592392774,0.0058546937548132,0.0074967716538043,0.0011111397166507,-0.001759709557431,-0.0045309032606722,-0.0068274939907755,-0.0046286141273991,0.0003387609373047,0.0036474820962237,0.0089542989967098,0.0087306365493091,0.0009777263790789,-0.0032505044341944,-0.0078626800969192,-0.0091916207302903,-0.0089590542788513,0.0005987577774826,0.0073790787343746,0.0085869678532402,0.008316950583697,0.0056549895403922,0.0026840367332724,-0.0053976226608416,-0.010688596534333,-0.0100823459900618,-0.0054966687700427,-0.0018192276997351,0.0051239859109554,0.0089108819917335,0.0053752398236866,0.0081115246415016,0.0052542709424176,0.0005405703272048,-0.006708353583294,-0.0128084760784255,-0.0095377242628768,-0.0042100614051836,-0.0021063348708625,0.0083660822644427,0.0119118203429572,0.0100589496757407,0.0042548938482653,-0.001582747767812,-0.0100338825773394,-0.005521299986783,-0.0034985238948989,-0.0020095412870773,9.545758383403986e-05,-0.0021163638723973,0.0002793339299584,0.003599073727725,0.008657355527755,0.0092081955013298,0.001971924759162,-0.0060902722436895,-0.0091432985369563,-0.0056925361648102,-0.0036277520222987,-0.0027018997711604,0.0009080124764978,0.0100250290861798,0.0078348456818628,0.0025939299623663,0.0109654069441608,-0.0029657163094667,-0.0282291597420002,-0.0166750948326695,0.0102689231164643,0.0115435185693845,0.0178995289057845,0.0116337125359092,-0.0044489143628586,-0.0157027359186959,-0.0092926349938841,-0.0201104776306381,0.0052834820474671,0.0060103080916391,0.0136585398227722,0.0261390679522851,0.0171188058855314,-0.0147671112512439,-0.0383714199005746,-0.0142215825776577,-0.014706757139036,0.0098714043857176,0.0248022964922437,0.0180231567791658,0.0172262528701896,0.0273738767628789,-0.0230683908465123,-0.0488615165691007,-0.0390810824932807,-0.0029046483330827,0.0242241052833572,0.0377040649817089,0.0417338739860213,0.0108832126947612,-0.0377290234118498,-0.0202073178029083,-0.0283412764064462,0.0073588770754175,-0.0253189685337686,0.0310871901535069,0.0434726167942618,-0.0003007504263243,-0.0141245920223702,-0.0304094496291943,0.0238655082306291,0.0044962729752901,-0.0100544489067508,-0.0160514030795935,0.0126321492613986,-0.0023376669134388,-0.0195915581616056,-0.001589185103414,0.0313857528620262,0.0338188659592133,-0.0111357503293053,-0.0155446013547169,-0.015412801650924,-0.0166967229323476,-0.0182339466137899,0.0161531045439239,0.0191881748786553,0.0162343997900444,-0.006873354893858,0.0099530964853188,0.0052132588852739,-0.0215826954999691,-0.0071488398560102,0.0008751569470772,-0.0196281198109362,0.0093011509044449,0.0135645946231711,-0.0021066930215656,0.0126917161702599,0.010343951064,-0.0008779970561092,-0.0086360102934112,-0.0114134898027658,-0.0138623701498408,-0.01532713403341,0.0173462021401281,0.0240934974011739,0.0072521956110969,-0.0058406357094436,-0.0141947091600317,-0.0037841925143979,0.0083588637225788,0.0011078811680931,-0.0128746027921791,0.0058729576387938,0.0085352263190297,0.0001575434493845,-0.0081295423365794,-0.0068873290960758,0.0018569818874952,0.014945102585276,0.0071184757296677,-0.0062362056490508,-0.0129995430045994,-0.003345993744223,0.003389261569481,0.0049451229760986,0.002216482672274,-0.0046171078960701,0.001575992760304,0.0027582743500655,0.0049423507666928,-0.0013626362061176,-0.0033768824556862,-0.0040210498119581,-0.0081416114149655,-0.0009909327409587,0.007223382479335,0.0071729960393418,0.0057653052901282,0.0047142541334977,-0.0028502245071973,-0.0143890456035792,-0.0066328719357041,-0.0020175593404868,0.0024942989043875,0.0043566982108474,0.0082187378323353,0.0057840012269874,0.0048218658122081,-0.0001127957832026,-0.0077002298218239,-0.0122009864783931,-0.0117396722262091,-0.0025209607233627,0.0144786819522582,0.0147367989912395,0.0060550707070712,-0.0005463769379208,-0.0079015885644489,-0.0063837869282701,-0.004970084370037,-0.006839891480753,-0.0003948996462141,0.0087838068896258,0.0081625596453584,0.004493469930822,-0.0009085547298162,-0.0004958301379029,-0.0032043658561249,-0.0097037349378137,-0.0078963729528817,0.001010512269487,0.0080958192417839,0.0097069188970073,0.0055560970849842,-0.0012536232028825,-0.0022948289782282,-0.0064365638603825,-0.0112296538015487,-0.0004575340429346,0.0045481317396979,0.0017610746951416,-0.0004642466129946,0.010353099991145,0.0096846295975486,-0.0013086867147646,-0.007096757344562,-0.0106110806605107,-0.0099734959847241,-0.0030919495655964,0.0033280564845729,0.0100673067144731,0.0143422278940545,0.0086611284587312,-0.0024327560227978,-0.011057787123732,-0.0161747099402676,-0.0055858711453819,0.0020795775459472,0.0080524590464208,0.0076721211886124,0.003161874671273,0.0034127263384487,0.0019954757783206,-0.003344583713567,-0.007957495010808,-0.008361590457651,-0.005437994625796,0.0033424635252058,0.0078037250783603,0.0105222896047266,0.0083701082105049,-0.0002509361304958,-0.0083813876915698,-0.0138753865283573,-0.0104240755681431,-0.0020021203930525,0.0112291575421259,0.0136189430314992,0.0090284428583281,0.001555275184923,-0.0063408398554612,-0.0088567861644134,-0.0098662657378538,-0.0037302493391269,0.0015395397066149,0.0045780627508742,0.0089261825643737,0.0064086976127714,-0.0002861130424087,-0.0054252926030351,-0.0028084345521759,-0.0014385414921246,0.0013757996492132,0.0002589084835993,-0.0006364191542504,-0.0019618252661253,-0.00419645548939,-0.000359860889188,0.0016427856378741,0.0042090439350079,0.0075952072035942,0.0031867734490186,-0.0001885494600713,-0.0036083481322798,-0.0067263912798134,-0.0077062781380505,-0.0029782345987225,0.0013420653414712,0.0046901244326795,0.0071460644646253,0.0040894485189214,0.0004454823297359,-0.0015530205903258,0.0001669425893138,-0.0014870585512389,-0.0036352442031843,-0.0030614495627404,-0.001666051680856,-0.0014094741813152,-0.0001508096810379,-0.0010433662811717,0.0048239309149459,0.0073134012222777,0.0067727962697208,0.0012909645687441,-0.0036805989699779,-0.0078354787842513,-0.0092341628230977,-0.0082677861087812,0.0017535552813189,0.0081012707756948,0.0105980389163055,0.0066196957385217,0.0013288608432332,-0.0043630621130723,-0.0065649286641778,-0.003669667263127,,,
-0.0010584736214078,-0.0027217511729638,0.0014422806909477,-0.0004543171081649,-0.0007402749805534,0.0004537266979027,-0.0023406863410411,0.0021834818014933,0.0009605281644235,0.000482541025274,0.003135674837046,0.0021105536527609,0.0033940716268174,-0.0044689767214357,-0.0112692219072697,-0.0070227749175554,0.0011312479191907,0.0085811383712156,0.010078628587347,0.0044612042363318,0.0003056351013237,-0.0032663439088162,-0.0059574577833918,-0.0039352324290301,-0.0033066382327171,-0.0034778498548873,-0.0048831441904949,0.0078401325598109,0.0090512405800217,0.0076439732192476,0.0038468858170541,-0.0034336370123286,-0.0074965483928763,-0.0066884599180477,-0.0052036909454143,-0.0037615319197748,0.0032600772320549,0.0046424120017819,0.0065256005988664,0.0013428706878291,0.0043282674561452,0.0019246520378433,0.00037662073934,-0.0041361549407889,-0.0086434604415256,-0.0086284119842038,-0.0049592085960881,0.0032566495732985,0.0097505797771329,0.0110560054126845,0.0069680181624426,-0.0016907019688868,-0.0080304067366175,-0.0075834097895186,-0.0036484151408022,0.0009310259434235,0.0017735245844353,0.0009492110546118,0.0010700306103475,-0.0034137475912755,0.0009901137785983,0.0071134158165605,0.0055579290278582,0.0027155509858026,-0.0013157112735641,-0.0074555900939177,-0.0124393630841218,-0.0099532244009759,0.0040368090040228,0.0121631692562963,0.0111850251426353,0.0074389583381675,0.0009308974762108,-0.0073274729492247,-0.0078923422508871,-0.0103907226866146,-0.0038876025570267,-0.0012246595244975,0.0050529925633184,0.009840909426766,0.0112780517192137,0.0065567715819756,-0.0029969720631808,-0.0132714812473037,-0.010022671188284,-0.0041934498685307,0.0017926951824446,0.0064194090153043,0.0051636230536914,0.0032403339107516,0.002376168599292,-0.0063538036827508,-0.0011289292683012,0.0039665002411993,0.0012656133562988,-0.0015953393854934,-0.0040807976627792,-0.003506138036688,0.0003322987155689,0.0020592917977625,0.002519153750565,-0.0017045512028531,0.0002660285191905,-0.0014581597298595,0.0016036547072253,0.0099740834998654,0.0051406262860267,-0.003689553330463,-0.0126966059005651,-0.0094174342076724,-0.000295241008713,0.0043468770828274,0.0038540761705847,0.0048656663132959,0.0032118596006276,-0.0018653431517388,0.0057013133983622,0.0031465664474594,-0.0013308778496147,-0.0065151771086104,-0.0042091464477589,-0.0077145950361583,-0.0101101764346177,-0.0016052244941152,0.0070916557105479,0.012325016003245,0.0169450306074033,0.0161199225441166,6.224534861813059e-06,-0.013541742686635,-0.0283888698890864,-0.0257507342594613,-0.0010626432010874,0.0137603356142615,0.0199283451648662,0.0139389064367473,0.012521894505602,0.0064425868962965,-0.001749774878384,-0.0160183857003937,-0.0264352866347878,-0.0168405525263228,-0.0089733608924823,0.0205506039524598,0.0264712785496676,0.0171272882943817,0.0040840504765828,-0.0128430637305173,-0.0192926465430652,-0.0009860113912581,0.0013884706039393,0.0010314058568963,-0.0103945870487689,-0.0046754718951969,0.0118576650906987,0.0188097393286721,0.0076652803081015,-0.0124766996332701,-0.0184723778439394,-0.0006643824308814,0.0110929045331274,0.007636216805186,0.0104809882765243,-0.0079947920315267,-0.0451819562510574,0.0062940975160637,0.0241878823311,0.0272669767343062,0.0054413531627136,-0.014685302546106,-0.0226163198700439,-0.0169588227645697,0.0269985769570119,0.009808703890264,-0.008809138663765,-0.0079394163826084,-0.0047394213819688,0.0005641300012778,0.0025315378001672,0.023007791890797,0.0186419133174652,-0.0045648493292814,-0.0486907492855349,-0.0216609188094412,0.0145911214234378,0.0198837247882799,0.0186478125210077,0.0177290222214557,-0.0055810849646151,-0.0103851185411206,-0.0191751173642423,-0.0312471527679365,0.0028818545132832,0.0231227644261031,0.0307035482334761,0.0019986844876763,0.0074553347958457,-0.0087956858131292,-0.0446351448792816,-0.0133348944937766,0.0207910573690307,0.0132289172455843,0.0160217429377749,0.0175863670974542,-0.0230275087828879,-0.0235656992156012,0.006166699346679,0.0100478135666046,-0.0053891073121082,0.0240806919801873,0.0047282683902198,-0.0482991269220273,0.0092822759020326,0.0027723584137781,-0.025597065563475,0.0512400592144538,0.0488389412410973,0.0039773621607076,-0.093768146493755,-0.0249815126293559,0.0066637095153557,0.0392474478348232,0.0379998917134061,-0.0081862431996579,-0.0018831763043643,-0.0248815049014311,-0.0229152582183173,0.0012529705111283,0.0378778976486982,0.0226113743237679,-0.0151007014225395,-0.0259088898530217,-0.0138721947275591,-0.0002615689079882,-0.0165105101381486,0.0352819902928431,0.0355132208865949,-0.0166828546517389,-0.0147179378660302,0.0153831545573514,0.018310091278511,-0.0448812228022115,-0.0372086741656476,0.005939430120337,0.011044770821963,0.0171944102592217,0.0300303446969556,0.036052825387892,0.0041852854972384,-0.0275334410157709,-0.0436191424960592,-0.0383467937083441,-0.0040615380912619,0.0071270965108454,0.0376687044296652,0.0350395199095098,0.0069741101804955,0.0318290137192569,-0.003353984390534,-0.0548679262128624,-0.0483746534607339,-0.0479364811769822,0.0301823453469913,0.0603350356157374,0.0378924769661412,0.0222864929287184,-0.0049752790598046,-0.0401034539966835,-0.0483653993728188,-0.0097952621054624,0.0196656784791884,0.0152336767435856,0.0048951653889435,0.0174633538725339,0.0136288192460749,-0.0162825726024007,-0.012778148672551,-0.0011588715852522,0.0020474913397643,0.0117145213367047,-0.022284485168756,-0.0309177597981916,0.0196675972171544,0.0400428194873865,0.015406638651248,-0.0096557005154893,-0.0058525878503992,-0.0170762711123827,-0.0201764431414467,-0.007609232615512,0.0002848149179283,0.0152471239222072,0.0199445939496917,0.0163253835953827,0.004219510658312,-0.0032760495785357,-0.0181825842975743,-0.0386095108055103,-0.0019682963367881,0.0196429004209121,0.0121035265825928,0.012248042205236,0.0082819596922978,-0.0055698113370941,-0.0089007825339072,-0.0110071850189605,-0.0065528438341824,0.008278504432899,0.0100882023647697,0.0015923380534135,-0.0043731135868605,-0.012646347487948,-0.0018100438262622,0.0101312150879398,0.0079963374379283,0.0061158352667905,-0.0012696466179413,-0.0070336347945999,-0.0117209492354431,-0.005169397236728,0.0008878494996631,0.0084822413743722,0.0119375405554385,0.0066004768270539,-0.0064579707574723,-0.0218936918942465,0.0029840147735065,0.0135779883083082,0.0099997321519154,-0.0039020842349989,-0.0147327655490246,-0.0088280869142521,-0.0022631615065482,0.0107837128107624,0.0152962781305128,0.0080040269214044,-0.0045962541288429,-0.0062643965410391,-0.0125593989807445,-0.0068170126749136,0.0027646561914213,0.0062111569818758,0.0009119903300415,0.0021529391281683,0.002449969046286,0.0023975705882566,0.0031138550497208,0.0021469433797086,-0.0004479672419023,-0.0070108335863473,-0.0147738104402116,-0.0014210013160316,0.0046648386536686,0.0037742485740908,0.005177646728027,0.0097481534252395,0.0033698497449122,-0.0011106830302031,0.0007284458403611,-0.0124027269872021,-0.0165250223457829,-0.0031309065743413,0.0097520246243723,0.012837845142325,0.0065451250651905,0.0015817000902737,-0.0037214120457472,-0.0057238365514854,-0.0047529016980132,-0.0011151131632862,0.0015373746186992,0.0030286554781832,0.0029509425254838,-0.0059690723180586,-0.0043927502982469,0.0021028436509793,0.0071767380286138,0.0067795323252151,0.0004322184118375,-0.0037857477773466,-0.0061195874952389,-0.0046656230044512,-0.0005115650041437,-0.0008878569661944,-0.001235332327134,0.002984149658056,0.0080176568256739,0.0099272906294185,0.0018054897363829,-0.0055856568515383,-0.009453753678587,-0.0087364070812441,-0.0068684726232669,-0.0015424816096754,0.0119355715140412,0.0150586815600007,0.0073246188431719,-0.0054263732691202,-0.0069560071631113,-0.007156311816699,-0.0045562617795523,0.0010975671885602,0.0012165400081544,0.0013193541765886,0.0020498525336567,0.0054701705609,0.0001605330943931,-0.0023521438666855,-0.0004825592014597,0.0015244913619104,0.0006365081432237,-0.0025423700110659,-0.0030272794934358,-0.0067731107186022,-0.0010890291967177,0.0089283539956565,0.0066211981054502,0.0033057571890946,-0.0011639243303217,-0.0062280056712335,-0.0042927969277389,-0.0018903546127321,0.0005371952118099,0.0009269682619671,-0.0021479193755152,0.0069341005692942,0.0042592991815369,-0.0003938711734319,-0.0002414331786314,-0.0028519850580184,-0.0056228795406537,-0.0052413497868462,0.001340725654098,0.0043318741099079,0.0076936492790488,0.0049131482511292,-0.0029881508081217,-0.0041967322217584,-0.007438194179106,-0.0054355374186297,0.0016054046018044,0.0046302634865044,0.007581340417077,0.0081115233425842,0.0015130575360708,-0.0055829856421762,-0.0092319005487761,-0.0065814017965319,-0.0048742820452859,-0.0010611298841036,0.005741638449654,0.0097078086293056,0.00776814213147,0.0103759043789515,0.0034840611994124,-0.0086012744734191,-0.0208454569160634,-0.0139191823736008,-0.0085294636050853,0.005139459554709,0.015684242799977,0.021094414055627,0.0146261004322436,0.0025385387847559,-0.0096126021155732,-0.0200049906697848,-0.0163401099173972,-0.0088671059282452,-0.0001266265371395,0.0078231841148341,0.0141547426436438,0.0183195354619719,0.0066660904029678,-9.744117685540873e-05,-0.0060157127389487,-0.0140072763212207,-0.0134799976532426,-0.0057478934194295,-0.0016384335874394,0.0027763656069938,0.0117269338350913,0.0128267268121856,0.0071966221021962,-0.000404675234841,-0.0021083764761713,-0.005993579440514,-0.0100338045168861,-0.0066289688038044,-0.0032418696475105,-0.0017186728686902,0.0037736869429028,0.0046444321854215,0.0111515506068536,0.0102479331504109,0.0087878371053985,-0.010387393938264,-0.0105916909434752,-0.0082254187648781,-0.0093405917064406,-0.0063134237644958,0.0022437789223912,0.0111513152680566,0.0104718963315175,0.0121597351569797,0.0047058692293308,0.0015742540032214,-0.0069383153784855,-0.0144713564810809,-0.0155208270617917,-0.0103148869365351,-0.0010040027738426,0.0080133656546567,0.0195622590328107,0.0204844132555494,0.0095998943525443,-0.0037798111375096,,,,
