0.0082513408850326,0.012915780338705,0.0143793146421776,0.0069968772578854,-0.0010555138774942,-0.0113601150841934,-0.0146222935858411,-0.0106811352488332,-0.0012376113729192,0.0034647900558843,0.0081992648864526,0.0088240844875413,0.0053762100187809,0.0019454976626069,-0.0016420368181063,-0.0029221945063822,-0.0033059736547239,-0.0080182411968873,-0.0037760216149297,0.0002067028045903,0.0026866682265885,0.0034076857047858,0.0029738165877519,0.0022863584685778,0.001882336008179,0.0016049931425329,0.0008277228919023,-0.000921755026681,-0.0033818519712212,-0.0054682909236566,-0.0058094776841947,-0.0036125477728713,0.0006841775511224,0.0054182090579612,0.0084309508153907,0.0081519101805521,0.0044563364233029,-0.0011843780769557,-0.0063754434373174,-0.0089614986359943,-0.0080515947385597,-0.0043380566056236,0.0004332237842058,0.0044519658233101,0.0066489396539152,0.0068839314030351,0.0055702301355107,0.0031650491445643,-4.215395315287617e-05,-0.0037289708754486,-0.0071791934522947,-0.0091711719324751,-0.0083771710611105,-0.0041696396838692,0.0026339812169784,0.0096604858957023,0.0137869078883475,0.0125937997791565,0.005732041278418,-0.0045833113840711,-0.0143159062041814,-0.0144325018703241,-0.009984526322124,-0.0068351343295734,0.0037231330068052,0.0123041713971274,0.0180219010096377,0.0128059754992999,0.0029294819576733,-0.0058326293782247,-0.0124710477735127,-0.0144224229951234,-0.0109550325955921,-0.0033940771716256,0.0053622565580382,0.0118996841237083,0.0135864740151871,0.0096341255901463,0.0014745647655179,-0.0077311344150661,-0.0094078965458228,-0.0082212583302539,-0.006430072933109,-0.0035683929421073,0.0041826033182543,0.0088375838627446,0.0090331036057654,0.0054614738071642,0.0002381643627441,-0.0042540137653532,-0.006410188082331,-0.0058641531154829,-0.0033075788213582,3.224810843222347e-05,0.0028828280783986,0.0042017449928385,0.0033071294300059,5.283020325011749e-05,0.0024786852236959,0.0020376904678649,-0.0016617533375472,-0.0071814542881981,-0.0044418827014243,-0.0015308230172015,0.0021352557353911,0.0036758094178967,0.0058667766055837,0.002634794999737,-0.0025435308939454,0.0025152340494069,-0.0011956910154277,-0.0066707903487337,-0.0114339312005931,-0.0045762794079325,0.0123054005699208,0.0153301611969586,0.0009051621192288,-0.0069334684428126,-0.0016198839649524,0.0027947508685257,0.0022484152635959,-0.0067631631587281,-0.017887746140252,-0.0063918788190186,0.0107810537832444,0.0142053141832754,0.0135222594899954,0.005701381088975,-0.0063621622786345,-0.001096014190607,-0.0010813201448314,-0.0180353680565066,-0.0385255093698841,-0.0043397392984725,0.0287564084609009,0.0375291843370138,0.0282126160283218,0.0029881936843725,-0.0235024527951691,-0.0198839571783291,-0.026722397081563,-0.0318688887393256,-0.0029036640514376,0.0314840810045029,0.0396909449368173,0.0272431170547324,0.025108550170013,-0.0250572330788529,-0.061954909913268,-0.0029886315176623,-0.0249603921371802,0.0220810156100916,0.0058552973926686,0.0021422237728486,0.0356759650406115,0.0327818056710581,0.0072259318449859,-0.0228304887040998,-0.067564972817719,-0.0501670339870437,0.0465091721778443,0.0329632758224253,0.029387161585,0.0073001288542188,-0.0069050213110678,-0.0272414982177125,-0.0018139713122761,-0.0219844942272586,-0.0125914244932427,0.0360009496622123,0.0242089314574794,0.0230342432937891,-0.0188472541387849,-0.0806155525432789,-0.0024095586776201,0.033773695347373,0.06507216604948,0.012868191684694,-0.050143437228407,-0.0513798921351795,0.0292221301988809,0.0276951561649916,0.0279553877525305,-0.0118835967003435,-0.076300474438352,-0.0107120659795349,0.0522747657329988,-0.0020675510407141,0.0324840012925133,0.0369308932554194,0.0157163324248161,-0.0250867682252181,-0.1339296492590052,-0.0924211212107816,0.1210948014050402,0.1334698582379259,0.0457170447976317,-0.0726797992502539,-0.0788077741630151,-0.0010934478347146,-0.0241531861463364,-0.0411117036082877,0.1123307131276363,0.0947178795825801,-0.0087272002318845,-0.1137991766566452,-0.13708179060296,0.0266486294599018,0.1101970685976866,0.0912948260095384,0.0321315973945793,-0.0331592763116997,-0.0904106665465276,-0.0728916298698772,0.0148182093890464,0.0256162474779275,0.0233494893713699,0.0254893383062579,0.0159881384424258,0.0243159569189734,0.0128613484223463,-0.0190200176949531,-0.0349585919536058,-0.0517641388294925,-0.0578674341584838,0.0215062502462745,0.0811869174402849,0.0605736773478128,0.0198497255448593,-0.024052290780967,-0.053663987344194,-0.0131663835781003,-0.0197445807586296,-0.029204335163365,0.0046881954441474,0.053248329614206,0.027206594446429,0.0279802529575966,0.0044233464353592,-0.045318577270451,-0.0394424958305915,-0.0258593788584913,0.0026660989085381,0.0351913177186403,0.0506599902354585,0.0209101084577066,-0.0132564356226902,-0.0306990565862252,-0.0818071887467039,0.0047723111261449,0.0487726581674514,0.0238074794063977,0.0252998697241943,0.0283531997640746,-0.0247330066743416,-0.0315013252635908,-0.0260953576401071,-0.0784165386479007,0.0362537343624233,0.0874184294346482,0.0247656953601246,-0.0067171950460135,-0.0045798624412696,-0.0489866944951974,-0.0107106808826823,0.0337668900358035,-0.0570625404485371,0.0146600134774585,0.0182195368605225,0.0022017544345593,0.0631043803587828,-0.0002564707551255,-0.0707714911018461,-0.0099793634242377,0.0290653876431832,0.0189511499632493,-0.0324836491270147,-0.0465165109426873,0.0434376093971609,0.0375220366646238,0.0389300028392323,-0.0351131531750769,-0.0529940368008929,-0.0043682903124873,2.3747409817151272e-05,0.0431573799074147,0.0129140374071272,-0.038661324201166,0.0371188616775006,0.0030912738148085,-0.0610233107319424,0.001460786739698,0.0293997771262929,0.0158409395033336,0.0067672539367315,-0.0181396941321267,0.010204196734946,-0.0001814565303827,-0.015268653917432,-0.0445121325581868,0.0404390233866224,0.0492589781358191,-0.0131706302669224,-0.074749581487262,0.0146145151936339,0.0463304377044502,0.020767833629771,0.0047843125443646,-0.0259336478849278,-0.0479241776204531,-0.008353705896112,0.0106071542456305,0.0407451983543315,0.0044292836911567,-0.0032147181408877,0.0363773836474162,-0.0144370441586813,-0.043722247760667,-0.0293305443372735,0.0110076767175576,0.020476037371027,0.001848327838631,0.0105866856116367,0.0308251635427834,-0.0017428249850084,-0.0353581522492327,-0.0053044861416073,0.0170938037432205,-0.0049188550655031,-0.0322876714697071,-0.0119932397371181,0.0243035706877479,0.0368406800037186,-0.001133758827282,0.0102232088763314,0.012526550669399,-0.0152719313677094,-0.040622883224109,-0.0609448048227067,0.0125192913402091,0.0468528572198996,0.0386310253461712,0.0239947493657458,0.003919161625963,-0.0159409746356332,-0.0299979541952213,-0.0233005078371524,-0.0319934398732007,-0.0187247484816358,0.0404326875761244,0.0551326684683391,0.0226692752424673,0.0034248806592515,-0.0247931908566626,-0.0385276464381782,-0.0142048995099494,-0.0047858681656633,-0.003406763763274,0.0071903345774712,0.0341468607835539,0.0304439349825698,0.0040040653318234,-0.0267077418217363,-0.0393359270827162,0.0004977397662597,0.0156864639514406,0.0066042501783584,-0.0043150835659997,-0.0027080771508744,0.0080346524718128,0.0098571521406169,0.0001175729998237,0.0034153972181168,-0.004955897062572,-0.0109532629215127,-0.0148716231576168,-0.0083497073849041,0.0072148747905518,0.0237568394800912,0.0188873214769404,0.0030408771471254,-0.0193237232667823,-0.0245343622412063,-0.0038804850073213,0.0141839694052284,0.0103513825356823,0.0005351539603202,-0.001528110382383,-0.0028461960857865,-0.001214134597666,-0.0037962737485109,0.0046205296464365,-0.006606824513971,0.0045691794674088,0.013821686936392,0.0022407824260167,-0.0099417116080161,-0.0105786111147337,-0.0065668936062924,-0.0019129695122916,0.0051447674187431,0.0126182640657435,0.0053543195494537,0.0069565316339085,-0.0054164796598385,-0.0051583471287474,-0.0017569431801813,-0.0081364437697975,-0.0090395502558705,-0.0014885300204638,0.007387607247431,0.0064351839106902,0.0039525839076694,0.0077666020854021,0.0063370298509363,0.0110203638057878,-0.0089096232562705,-0.0296642405230383,-0.0337744023235193,0.008220956582652,0.0246696107869461,0.0266725732386863,0.0196474283147365,0.0055654762104335,-0.012168243395385,-0.0395128749752062,-0.0434484318153438,0.026071836851135,0.0282030095900752,0.0122961462133973,0.0074793045768888,0.0013943923406012,-0.0054742185212135,-0.0203844158140303,-0.0018419034417372,0.0085842237849352,-0.0351345381430421,0.01029528485823,0.0433137574945303,0.0131728645742018,-0.0164445219274315,-0.0222656195012623,-0.0085263467835821,0.0069849842600242,0.0109166049779105,0.0011492649265348,-0.0077643974154489,-0.0019416778237587,0.0127830785817016,-0.0166576511415384,-0.0073723852175186,0.0159574612824365,0.0208249101033867,0.0209734719943653,-0.0143681300753869,-0.0481700100064126,-0.0389859084552213,0.0160126434360906,0.042010171670205,0.037427546788042,0.0096646852789472,-0.0162784132285743,-0.0282284937665086,-0.0181856888945426,-0.0006479418942715,0.0065617865545098,-0.0028574657832188,0.0020535010101279,0.0031632508573022,0.0290026460351052,0.0179685421390409,-0.0081306798996933,-0.0258794834551582,-0.0261021604720066,-0.0132913275773474,0.0140015621270751,0.0219125866922512,0.0144201289985971,0.0085819732479017,-0.0047374646561416,-0.0143671382961,-0.0146992304383422,-0.005528236147893,0.0073642113258113,0.0077524087873807,0.0091098733416701,-0.0005742778019262,0.0002512702338237,-0.0047809047670158,-0.0107878758773512,-0.0046934213078711,0.0069654873903308,0.0107538939532421,0.0097682067129123,-0.0017044863786405,-0.0095972860421421,-0.0133140732997893,-0.0068510619354831,0.0063756413236388,0.0102352772061522,0.0066088161004557,0.0052630388426455,-0.0002948699019458,-0.0101250276500873,-0.0107147366805568,0.0078402875557379,0.0091198599106053,-0.005743017984225,-0.0187259905746519,0.0029952630628475,0.0132210305509509,0.0099536256159062,-0.0010821618006641,0.0043959198964223,0.0032419831142391,-0.0075181867189426,,,,
0.0042625460379106,0.0053191983369681,-0.0011822379211778,0.0034652688759961,-0.0037430127926606,-0.0041430186059718,-0.0035033958318523,-0.0039840702981816,0.0014971592467663,0.0035848858886236,0.0011315730952676,-0.0019259454000607,-0.0017264279697779,-0.0008295559928834,0.0109702452713731,0.0082929077204068,0.000354368335174,-0.011641168471095,-0.0127468221231913,-0.0025871674500655,-0.001191705804427,0.0053643937968402,0.0092986615704367,0.0027712836302685,0.0035921669740911,0.0030426785173702,0.0023703247179905,-0.0031876345496454,-0.0148450628004181,-0.0172823277532545,0.006008933113179,0.0116722575728326,0.0085176002911421,0.0041239651134287,0.0008195440628586,-0.0002011291098339,-0.0051802576901546,-0.0080575174664403,0.0027589247062122,0.0008846137887455,-0.0031221878581198,-0.0055009142883074,0.005545612154355,0.0054089984142789,0.0027508624419776,-0.000319496814691,0.0044947008129361,0.00206903582217,-0.0055890488626466,-0.0181330407883909,-0.0060227534652032,0.0114844606312583,0.011101937941871,0.0069382978338785,0.0005832355710434,-0.0028577441852742,-0.01102117162579,-0.0047506055193544,0.0076524620115988,0.0042165101688343,-0.0066103005033182,-0.00621758062739,-0.0065731615168694,0.0151210221190485,0.0150346617812803,0.0044869818342655,-0.0067848088585824,-0.0143689434567743,-0.0104098348519684,-0.0062896377955347,0.0039000849145287,0.0087885912846704,0.0127540375970159,0.0111811888452362,0.0048617292940623,-0.0104602539614993,-0.0148668725992599,-0.019588259964579,-0.0046102329709334,0.010491602787073,0.0178414363265251,0.0134691540674757,0.009345664759273,-0.0015590211131721,-0.0103711015281842,-0.0127956486152879,-0.0256006530610276,-0.0321117371398657,0.0298424124028095,0.0445807798742314,0.0286266642308317,0.0015579444104655,-0.0235596805686618,-0.0473863860814933,-0.0125336593344978,0.0304923060686448,0.0016391352093249,-0.0032756845257774,-0.0049204851923815,-0.0033130979757404,0.0349398280610683,0.0227682433712507,-0.0004095168250376,-0.0203206534362697,-0.0603911942077123,-0.0113850519006245,0.027097988250121,0.0134237798011429,0.0061729751170779,0.0311633318084454,0.0172579310774244,-0.0122665991334862,-0.0253834960628505,-0.0131672139851485,-0.0374768894801471,-0.0179733519856805,0.0580082313629585,0.0274737079047856,0.0072002694708464,0.0132204238153948,-0.0273625056815398,-0.0206961909837335,-0.0357990774195249,-0.0118411110462765,0.034606944184508,0.0287558810731679,0.0334442086786558,0.0168744417189194,-0.0443863405011165,-0.0612452480434741,0.003374796108971,0.0033312992126327,0.0161513332670641,0.0460620042698857,0.0155185969049732,-0.0023584411459726,-0.0294472068385963,-0.005273754347655,-0.0199595172154935,-0.0204352900786226,0.0118213638321406,-0.0023790622983767,0.0266955236111335,0.0351618160255149,0.0015782879662409,-0.0164593102762276,-0.0082353085486165,-0.0024146538281271,-0.0217075388948533,-0.0155910022097624,-0.0216452276273305,0.0184834914657684,0.0275723839463236,0.0343590036583846,0.0127850632562472,0.0182809375885493,-0.021461573568218,-0.0629888836963857,-0.0430769974791971,0.0177552714878511,0.025803394134765,0.0083545534219674,0.0157659095370381,0.044227220544859,0.0254531145446183,-0.0155384358665231,-0.0684125978190765,-0.0426616444503429,-0.001040387384434,0.0061017393374655,0.0471984552384516,0.0389504661659252,0.0109033157380009,-0.0180265952387946,-0.0222998146912189,-0.0132450727580775,0.0079934808107529,-0.0346158594549282,0.0045315163695065,0.0262477358936669,0.0107428919778187,-0.0083411067154794,0.0094739115827395,0.0182236252006377,-0.0131317145639574,-0.026826428664107,0.0051176014600083,0.0058498582882344,-0.0009102455886651,0.003862333154055,-0.0075797532239012,-0.0303427683734953,0.0180449545902287,0.0399659926353383,0.0271580308291673,-0.0081830617643555,-0.0235907620837243,-0.0486393222323134,-0.0333853403852515,0.0362826642164849,0.0346849972115272,0.0015470951747119,0.0304961059254536,-0.0025396989063654,-0.0262404091621062,-0.0227439754421376,-0.0146888328389,0.009542577361493,0.0276197389709612,0.0057324885038231,-0.0246441048799804,-0.0047902448365181,0.0198703574016047,0.0122214017184952,-0.0199025052899491,0.0059333876099285,0.0286626788001654,-0.0349478818660741,-0.0241718676138191,-0.0062545193545623,0.0343159134730233,0.0174055795286879,0.0021185318439732,-0.0325536490478271,0.0026358040189495,0.0125647968496358,0.0185837349238967,0.0057125957867676,-0.038822873564871,-0.0105300195824258,-0.0106905855865787,0.0130113886064469,0.0299409627258021,0.0125810700332184,0.0125872357064097,-0.0119661852515797,-0.0291684212665678,-0.0241798383636091,-0.0202975009903938,0.051633185886325,0.0299426771184148,-0.0100315910753998,-0.0152803337970895,-0.0046541190050236,-0.0354130664007665,0.0167173333112457,0.0096806718389137,0.0452569942122642,0.0243639446583021,-0.0616960986980205,-0.0853017345971504,0.0619753485535288,0.0446085342445449,-0.0071323878864065,-0.0059759440098828,-0.0029268514460442,-0.0164308228321614,0.0394952900971953,-0.0011088224263269,-0.0661022582335623,0.0040075866271364,0.0252708606019785,0.0334671953947301,-0.0172457311069289,-0.017592209224099,0.0103267359102948,0.0182477571252178,0.0106047324406489,-0.0274829888437793,-0.0218080393259309,-0.0104880196963168,0.0259106925490108,0.0186448550977942,-0.0004531482273109,-0.0247795998296883,-0.0199463771391893,0.0459335602810991,0.0507999427212466,-0.0239668034530614,-0.0674740463276906,-0.0382399798692284,0.0134471691989812,0.0601006956734428,0.0263114491884015,-0.00252846398992,-0.0219873513491699,-0.0001128560625689,-0.0088360686057138,-0.0357485484734194,0.0003649310121985,0.0381455170461947,0.0281543815536573,-0.0081664794644951,-0.0394754199577022,-0.0069738158803198,0.0143503946353748,0.000992270938925,0.0307594267837546,0.004331824981663,-0.019846871611851,-0.0359746332323558,0.0036470155632706,0.0187201118532129,0.0106196360261745,-0.0051269087735738,0.0182719864270087,0.0037306003522574,-0.027634495773343,-0.0149346307292427,0.0175875600683025,-0.0087945893078603,0.0084631980915311,0.0103413096574645,0.0082276695224654,-0.0116958287152261,0.0101763859498892,-0.0075923514850643,-0.0365391906037204,-0.0022351364940488,0.024456141434689,0.0149382634291618,0.0192976433036925,0.0180779765781114,-0.0151249890374948,-0.0513700479844526,-0.0283823442185314,0.0143260712674736,0.0272993749848742,0.0166524107752175,0.0186160843106159,0.0072486072849715,-0.0065150084199515,-0.0154010184009608,-0.0370659474158101,-0.0206842097372657,0.0229328702577584,0.0231692606479989,0.013472309295669,0.0040682330979707,0.0011870095149727,-0.0037837034040716,-0.0193233246127885,-0.0069336689429743,0.0023965832412423,0.0005881220224147,-0.00838561497121,0.0127917621395565,0.0173791970028426,0.0075814714840103,-0.0119227440724353,-0.014227358998362,-0.0093449996136047,0.0120099175064994,0.0061290116504351,-0.0033090674439494,-0.0104168973219552,0.0086385356565513,0.0064098060193348,0.0046464181419893,-0.0055985381380663,-0.0071786195898172,-0.0031618308103219,0.0005448525112186,-0.0024416209709884,0.0137826791970487,0.009460755508122,-0.0044731394078199,-0.0136048210385923,-0.0089483366734557,-0.0024085819088379,0.0016905259412463,0.0127025816310662,0.0142533138562177,0.0036732463410964,-0.0040820173173636,-0.012771610681779,-0.0137867921255243,0.0059832015888692,0.0021246050203454,-0.0154580097721469,-0.0029735253646454,0.0367040439256637,0.0145624613889116,-0.0203971932696495,0.0062558861345621,0.004091979619242,-0.0226663219376922,-0.0125579004836433,-0.020015212389353,-0.0083964252239496,0.0423065229911886,0.0394422262397901,0.0161045138968752,-0.0136442246441742,-0.0361512306035663,-0.0491079858516344,0.0043778008793694,0.0241756749712309,0.0242902637946534,0.0107936450626838,0.0012913947227525,-0.0037975339382812,-0.0114581118568761,-0.0066760524722633,-0.0014262348905439,-0.0006815940228448,-0.0074992227520346,-0.0002432332661256,0.0087876378452098,0.0104190447722016,0.0099933097480816,0.0051667816813793,-0.0044923658876913,-0.0169478748576748,-0.0224083600644382,-0.0124541597076308,0.0151414568876623,0.0233538434039082,0.0198347225146629,0.009670651088949,-0.0079611218211038,-0.026187863967715,-0.030133418699478,0.0082762780416719,0.0166879145727077,0.0139815819843905,0.0027241234391917,-0.0059928006181175,-0.0102293382856924,-0.0068893707714815,0.0165195901599775,0.0210481926735638,0.0022833447755682,-0.0129093051453031,-0.0365026542278493,-0.032182836176949,0.0154601234830154,0.0373565289102374,0.0376256512161496,0.0167441959274415,-0.0126523890411072,-0.0379145841515326,-0.0172828533485219,-0.0352269464807136,-0.0087669464494339,0.0449901626810846,0.0447432306785967,0.0170902299871869,-0.0079404902689023,-0.0249967301686496,-0.0335405487567075,-0.0151566512757404,0.0084844098015603,0.0145986592237305,0.0171172784209362,0.0079926609323563,-0.0025373942226709,0.0009932324893617,-0.0043277889062343,-0.0166573796332797,0.0052499379876457,0.0013538352122068,-0.0045902212604757,-0.0073788756452094,0.0057904918897374,0.0127059958068633,0.0116405798119447,-0.0003946657200752,-0.012849100779748,-0.0148858594157835,-0.0009710856788241,0.0113378849683835,0.0061376672835221,-0.0011182564205422,-0.0021304185448875,-0.0024937763595183,0.0017546579972167,-0.0022417321514223,-0.0058649771730645,-0.0008659548732379,0.013478143381123,0.0098481442041702,-0.0044026160552265,-0.0118919920357812,-0.0049260672429569,-0.0060641329939843,0.0046471818061022,0.0051951295706584,0.0097671657014655,0.0038360972819601,-0.0104786891043343,-0.012707589381012,0.0060817892969098,0.0078552279371585,0.0102193869829016,0.0035224889445473,-0.0090482621228121,-0.0107231394207892,-0.0101172065184521,-0.0058665940712199,-0.0039811795177184,0.0128851245164196,0.0247970629974905,0.0229020383795869,0.0031950305935078,-0.0228617189998005,-0.0267442998004063,-0.0206995326565575,-0.0042563758644309,0.0086219484576552,0.0138046966127795,0.0176439946200569,0.0203799654162078,0.0095224430390409,-0.0104071298298532,-0.0062655075168202,,,,
-0.00762783738584,-0.002809407779898,0.0182596820416852,0.0292138583070679,0.0186503915311595,0.0014358153163941,-0.0211747513258148,-0.025049669757102,-0.0116269164694377,-0.0033617906034603,0.0051537085891083,0.0116548055373876,0.0126018184791209,0.0079787829841137,-0.0065292077382403,0.0058269279233681,0.0018630014223061,-0.0052007067856902,-0.009124525751485,-0.0149282198188105,-0.0086836804738253,0.0002721290893568,0.0153356055549541,0.0227381164760626,0.0109024323741014,-0.0004735260379765,-0.0132153228168972,-0.0174597285274834,-0.0150574464037145,-0.0053855133236911,0.0062216604326508,0.01687551143755,0.0206132905346421,0.0108716984015867,-0.0027795090587247,-0.0180781652137718,-0.0211583497814138,-0.0189889356154568,0.0021972833800996,0.016752739755463,0.0231190334495742,0.0174438381148319,0.0064479754446513,-0.0096966644404387,-0.0223850179600141,-0.0271328226585358,-0.0070042631666497,0.008312226486455,0.0143728976541395,0.014275669780677,0.0144488496231013,0.0094112929203121,-0.0006197693439139,-0.0139726260797782,-0.0247429061569485,-0.0134730335210953,0.0010224412354445,0.0064312831372824,0.0077676516285337,0.0056358821143392,0.0149981298385349,0.0128894679225099,0.0098362428483092,-0.0050113682603532,-0.0228319110698103,-0.033049028215991,-0.0235960279346954,0.0079024003253246,0.0287785432738259,0.0299853418166726,0.0210603700933195,0.00706267931551,-0.0102906697523216,-0.0273191886410696,-0.0225566687188745,-0.0206538649516894,-0.0207462727742186,0.0186814621462489,0.0334460433938437,0.0418704677292088,0.0320764694654655,-0.0049103183610097,-0.0451332410729175,-0.0661592840276169,-0.0141304562223006,0.0226891676129957,0.0251544794794697,0.0149645097723332,0.0118868639472235,0.0009270539967438,0.0207913787462865,0.0293993938355143,-0.013558981451241,-0.0570816742742799,-0.0942617950081287,-0.0018586583777354,0.0565792664218772,0.0619303813547173,0.0524454645663093,0.0246812214490352,-0.0098926528041373,-0.0547295395065013,-0.0839019357614792,-0.0692422147359841,0.026687642224534,0.0798148852029804,0.0844300009903639,0.0406685316168087,-0.0266685323318218,-0.113049283766538,-0.0460960691737883,0.0509831670842707,0.0370104811300508,0.0277925467823594,-0.0364840275668049,-0.0336804866276462,-0.0062928400107843,0.0433774761698917,0.0581407366819044,0.0033337468403339,-0.0545460004179877,-0.0965371688974482,0.0045274241012707,0.0811715889200287,0.061983237175665,0.0072081806194105,-0.0329146028976593,-0.0690223526905655,-0.0509007239776261,0.0314762731863616,0.0577143844406544,0.0546406572660375,0.0118166826604256,-0.0460832190040345,-0.0688124718669152,-0.0068645070239896,0.040893499399705,-0.0060597764541109,0.0159523282934118,0.0081622798702697,0.0049364873068002,0.0088715569961216,-0.0041953669200826,-0.0044937358316041,-0.0061278103309468,-0.0311664352959893,-0.0465856818437102,0.0346542698141304,0.045210923701785,0.0208400752652206,0.0084045808672338,-0.0018717355497044,-0.0125854294003655,-0.0197895039387153,-0.0347878624370032,-0.0321425316509718,-0.0080307430183851,0.0584442812377267,0.0501271397216028,0.024357727599443,-0.0095266283285399,-0.0217062179127347,-0.0419285071948917,-0.0505093738591014,-0.016744903475034,0.0531454707277701,0.061628100676577,0.0183431781408771,-0.0355165555479442,-0.0362192049372704,0.0051505524210111,0.0116283165099065,-0.006056066392793,-0.0019871212431514,0.0129365345450025,0.0122471336863786,-0.0149942420765161,-0.0322662234183603,-0.0115409742046145,0.0327284194526985,0.0629157432693396,0.0086319306823303,-0.0579870991038745,-0.0473157582533409,-0.0003601031286291,0.0073846537765792,0.0309378428954246,0.0321107545700821,0.0117438924599339,-0.0127447581011466,-0.0338616652363287,0.0014705976215022,-0.0016289421599081,-0.0217397861950854,-0.0086156694492954,0.0281539504052048,0.0250962370902989,0.0075287652020623,0.0178879699396683,-0.0049479170796121,-0.0573681803414186,-0.0181756292418758,0.0288517579044548,-0.0146004812944953,0.0039678765658292,0.0321606776083301,0.026755729055586,-0.0412070498377502,0.0063224748531801,0.0339822711794936,-0.0088592452969264,-0.050670078691515,-0.0396540054882586,0.0097526624709022,0.0482561127049589,0.0397682883558207,0.009287839382222,0.0066828994418328,-0.0457234410913997,-0.032135812233389,-0.0168967173018771,0.0024012628893557,0.017690981459819,0.0132241405518123,0.0564069679134841,0.048929609036833,-0.0300576017448214,-0.1131866092087343,-0.0912966203499916,0.0881482423460825,0.0677902910297282,0.0307825928946629,0.0133141317109615,-0.0235708209756428,-0.0302307911959833,-0.0463399806876647,0.0176078851647004,0.0146840602027796,-0.0254252594399574,-0.0186125433580756,0.0478841164488008,0.0630178049077237,0.0129905780510312,-0.0275022988793405,-0.0450346514920355,-0.0592683680110541,-0.0176304079662954,-0.009739316173975,0.0875039744731389,0.1070080831177208,-0.0104491832959412,-0.1041788514304365,-0.0280471748934969,0.0029251139189648,0.0003921210816034,-0.008819074248432,0.0310330937448575,0.0342993705554521,0.0328936489745391,-0.0172439305203402,-0.0251553181059504,-0.0479617433357671,-0.0433749511989456,0.0015398746412656,0.069012332717918,0.0681192532474306,0.0413452498425389,-0.0188252451017794,-0.0856535872190004,-0.1507818796367904,0.012201223926514,0.1178150569921725,0.1108141789258871,0.02264362852994,-0.0554418686107155,-0.0877121324539755,-0.0214135272853669,0.0286885326092855,0.0258415025512912,-0.0151283347508647,-0.0119964683295782,-0.008056036033914,0.0450332037874962,0.0403273412097118,0.0029807519417759,-0.0262837510605017,-0.0611732333143254,-0.0413894291819615,0.0330539232869709,0.0477668629374958,0.0232288489819742,0.0046500082718209,-0.0246002145883549,-0.0132082990934975,-0.0331947951374619,0.0005350977546933,0.041382229688431,0.030448541905635,-0.0114973611848336,-0.0203518721750999,-0.0230007109997586,-0.0002689410749065,0.0082423170078817,-0.0047051935403477,0.0090875881978821,0.0124402298722892,-0.0069745787316526,0.0138649969649068,0.0150986977094854,-0.0115860910094584,-0.0171608074568774,-0.0286761790450545,-0.0007846151774503,0.014861488240664,0.0019384538262393,0.0167661318270034,0.0134348879391456,0.0019234356020642,-0.0052183609082256,-0.0013212710817962,-0.0070466442437647,-0.0135070049365275,-0.023204724853183,-0.0005351625897809,0.016814013070748,0.0164438698813535,0.0128448740655393,0.0076485722196971,0.0013894430975339,-0.0091162501046186,-0.0159880754212645,-0.0140056716638452,-0.0099082475474723,0.0008274613230325,0.0146136466916632,0.0042912664307239,0.0167974520266551,0.0127082049182596,-0.002270098723186,-0.0022957464357621,-0.0122036996775027,-0.0279357792980947,-0.0195764323375611,0.0086341793424857,0.0189216103833006,0.02768594309508,0.0135801012759342,0.0018025674781277,-0.0113810591824952,-0.018963961789936,-0.0166555951887831,-0.0120282115237487,0.0005057692493803,0.0183977125066783,0.0175905855171025,0.0087822480771178,-0.0019180983749046,-0.0053219663509426,-0.0091470140461747,0.0004450780020368,0.0014253035405523,-0.0043881775355394,-0.0141227992081206,-0.0047608277527497,0.0090776194564891,0.0145642771171788,0.0134642533947152,0.0019758104983523,-0.0076394381978682,-0.0149384029743322,-0.0005283834919027,1.0537804422671374e-05,-0.0014743064978403,7.4119114714826605e-06,0.0083994837107194,0.0008068645195497,-0.0083647173827835,-0.0014306458773944,0.0030200700426437,0.0062786552321019,0.0086631589767849,0.0032023908243277,-0.0036070867569683,-0.0114527917483387,-0.0100522027585319,-0.0064736574201676,0.003439642585351,0.0056104582677373,0.0080140602920561,0.010494381294647,7.359994968061876e-05,0.0001298500113553,0.0033830958722701,-0.0058514606626641,-0.0120634242226786,-0.0150055736796017,-0.0021547872141658,0.008949502574197,0.0106872203970201,0.0076354575825013,-9.321446732268712e-05,0.0084316567987027,0.0053698965759388,-0.0060827801138056,-0.016402691015415,-0.0153808144492817,-0.0124773292296097,0.0118043931858129,0.0198465148714183,0.0179929661136071,0.0001202838984614,-0.0117590721334163,-0.0089762130052285,-7.248564592241662e-06,0.0007466717562872,-0.0063088629712678,-0.0033149807180886,0.0024432716933239,0.0082547292716791,0.0064997264819816,-0.0002094905483179,-0.00346186760764,-0.002337812478538,-0.0008901403153004,-0.000363891144256,-0.0023218706589389,-0.0013005554958696,-0.0013531429157627,-0.0029156061614366,0.0085426033635787,0.012646054193716,0.0026925979256737,-0.0108200723977333,-0.0095446376053719,-0.0101041901695417,-0.0048244439671517,0.0109846308794088,0.0125552077104478,0.0136126666832859,0.0033084256508608,-0.0049064026500873,-0.0163461221328051,-0.0256034569382196,0.000953404794429,0.0150284174387045,0.0188342633298164,0.005520422530149,-0.0046410830666026,-0.0014721529954742,-0.0089230654485092,-0.0012563249401953,-0.002969161676407,-0.0018120818860634,0.0029808899639512,0.0020805995386693,0.0011886166519618,0.000671428435982,0.0013232224574119,-0.0008262066388125,0.0045182614636947,0.0029044212499373,-0.0019025078325042,-0.0069214250475541,-0.0115789831620505,-0.0041404649104723,0.0067148898739709,0.0131591662914419,0.0115748084068405,0.0015076512659059,-0.0067265527909571,-0.0130032513311548,-0.0111787300890314,-0.0054064910175535,0.0116104575560099,0.0158576832277232,0.0088574980629395,-0.0022396752987958,-0.0141602444463054,-0.0112156026541595,0.0010826590668463,0.0056046652429184,0.0025009393433332,0.0033362861941495,0.0053685206815927,0.0016801567256823,-0.0043722847061347,-0.0037903283233446,-0.0025023142220739,-0.0072795584467406,-0.0021894720790371,0.0057828252323423,0.009148612109063,0.0060940380820046,0.0009124152524351,-0.0049278130548859,-0.0013706807073425,-0.0048463090512446,-0.0067146715988409,-0.0029517516156496,0.0014367551238377,-0.0016932785859764,0.010137588091794,0.012774899557028,0.0057728890165909,-0.0035988374587632,-0.0065162620977996,-0.0123211886145452,-0.0172055858362923,1.8339952499660605e-05,0.0127022925572723,0.0121157648826338,0.0092951161141901,0.0021271167120374,-0.003348903613171,-0.0073840195370987,-0.0079603951172794,-0.0093826340886152,,,
-0.0060293177983636,-0.0062393748664285,0.00314260546314,0.008881727055753,0.0091573813234954,0.0107598291549812,0.0038138069105666,-0.004362551010137,-0.0128345232558845,-0.0197552168168514,-0.0121975819752684,0.0023503279492559,0.0141645227551639,0.021318454704079,0.018358576122209,0.003422907379703,-0.0141260908218607,-0.0214503313312037,-0.0126856553385419,-0.0128588937079761,0.0070355338882917,0.0178812563383346,0.0183759487213718,0.0105267720271295,-0.004497962517507,-0.0133093377069814,-0.0102665018483738,-0.0043778580996701,-0.0046704272933686,-0.0029126416416502,0.0097683947539871,0.0117593899400331,0.0028180342528571,0.0025298802318886,-0.0002562899340624,-0.0054359517760144,-0.0083851303666378,-0.0067638183908046,0.000783623130605,0.0045282095475806,0.0062515914958105,-0.005201247937091,0.0060695553141771,0.007568709925782,1.4893270690267694e-05,-0.0099753494404921,-0.0059470737209754,-0.0042352624623074,0.0090372131590884,0.0064997934356833,0.0007812472136093,-0.0027094386685312,-0.0077492991301724,-0.0078294385806943,0.0006958819964129,0.012170592897322,0.0138110489758332,0.0049635099823631,-0.0072483916891468,-0.0183166267825323,-0.0135685611458117,0.0015280157222419,0.0072750446147987,0.0141674340113441,0.0120942688206712,0.0036726713612751,-0.0054929357106549,-0.0192025276270821,-0.0071587823247281,0.0008898130933333,0.0064466982638693,0.0028687690418819,0.0043276603584117,0.0068249893365258,-0.0034972481990535,-0.0083931317616673,0.0065187363289435,0.0057964868095538,0.0002471660403408,-0.0123152121595799,-0.0177362506227352,0.000980358333347,0.0105050704227987,0.0166690736003635,0.0129162844298395,-0.0016320234285984,-0.0067324469715712,-0.0007628877564223,-0.0092563001447367,-0.0291257317286865,-0.0353415915642727,0.0356041089713689,0.0603330979149169,0.0290310883268999,-0.0235445042196317,-0.0509858733507383,-0.0320244740176118,0.0289670932387845,0.0282407702243922,-0.0014882173373011,-0.011549453312197,-0.030025983590356,-0.0088053824163298,0.0502457825397635,0.032030836811338,0.0116676559360194,-0.0288155044272693,-0.0746915220657331,-0.0034328863234173,0.0486287229104158,0.0188905808113252,-0.0064123322610489,-0.0288659964830968,-0.0197709145066273,0.04776620337062,0.0276007462856356,0.0435685683801302,-0.0034687364560099,-0.1096281471271704,-0.0986425533719572,0.0453854238721272,0.0598073024295207,0.0867447732192392,0.0087543581075138,-0.0112296376542389,-0.0004404663292482,-0.0220962146297565,-0.0849404888168546,-0.1044437315193635,0.0427967880863219,0.1484346281901403,0.0927394720421833,-0.001233919186819,-0.092921335178477,-0.1628635236442864,0.0139581576620688,0.1043645254752518,0.0752938143514569,0.015608820233247,-0.057881624719903,-0.0429454262435727,-0.0261651700308763,-0.0203111741987451,0.0544857439635617,0.0389671629770616,-0.0055975724195619,0.0151956200451092,-0.0011327604279056,-0.0312672000281405,-0.0331862775512766,-0.0071698736582997,0.0092470421176958,0.01455727521479,0.0142180406266218,0.0105381901445633,0.0037624895154046,0.0017060170701123,-0.0047279616486052,0.0021792488728943,-0.020303670280314,-0.0033178642722467,-0.0074827556279053,-0.0293300778789589,-0.0068536656158004,0.0660250922307779,0.0397595388171834,-0.019034298314002,-0.0039427669546283,-0.0144268454625379,-0.0398975520193141,-0.030370138719932,0.0191769620139118,0.0191693107592427,0.0106184605668475,0.0251042815985286,0.020823719583784,-0.0026601666423775,-0.0188089088784628,-0.035293211689813,-0.0125670732133906,-0.0329266961114286,0.0255066275834081,0.0487880500644413,0.0317087960014012,0.0029616352580457,-0.0331155254178359,-0.0349073518828264,-0.0064500175052658,0.0118804207456134,0.0244672993534792,-0.0253094915221357,-0.0097781811489941,0.0258258980835455,0.0410828112990473,-0.0165220813243243,-0.0273859319200037,0.0041183530979906,-0.0302373470969867,0.0042176340352047,0.0134695988633253,0.0140990782014598,0.0207541547575505,0.0033506286952915,-0.0371863002219786,-0.0074473084632935,0.0152558551603722,-0.0188119584800499,0.0142072267409065,0.0384965701170583,-0.0031418960954766,-0.0342670793009931,-0.0175118369317325,-0.0047302916511331,0.0132478190887443,0.0134285550697838,0.0054656723520871,0.0238585406523801,0.013772839158037,-0.0301747534598174,-0.0378302067031125,-0.0118920207760555,0.0210904895884334,-0.0046712671904044,0.014962420067411,0.0357027023180274,0.0081948674632765,-0.0317854168560557,-0.0125040984193731,0.017761450157497,0.000948807326001,-0.0433610704302208,-0.0126066128516588,0.0146953635389828,0.0288464211702114,0.0404001662684739,0.0092712806343932,-0.041493575285851,-0.0153746023656762,0.0047131965295487,0.003191647604024,-0.0252611168406499,-0.0140605551718716,0.0122000385816817,0.0281343542536546,0.0279329847346828,0.0113171601530068,-0.0006719933882713,-0.0072102568007692,-0.066946959374212,-0.0423059290733478,0.0518977805621665,0.0432888531703871,-0.0264194955778973,-0.0056247103952872,0.0335576944487893,0.0260424353946436,0.0008532057041574,-0.0313395139932781,-0.0449090085984533,-0.0258082932684059,-0.000637587432439,0.0196241825375285,0.0528729595671091,0.0372329169523467,0.0009003619078272,-0.0169860238577983,-0.0439507974443634,-0.0333939502020235,-0.0041311883411549,0.0329039184379501,0.0034650550894559,-0.0096419747363893,0.0295681188611057,0.0159038811907383,-0.0215677780523763,0.0130414393607122,-7.907752032433394e-05,-0.0281289368776282,-0.0063310311719025,-0.0009834955469933,-0.0262671237140912,0.0101126858177466,0.0365671187588401,0.0296766438013302,0.0007314857107187,-0.0006995973843651,-0.0118618599322495,-0.0324556024725236,-0.0409711326229601,-0.0255874610393288,0.0550437234977745,0.0579911185520328,0.0154979423914491,-0.0339652125895411,-0.0232054047077054,0.008645144592851,0.0020078646104282,-0.0160012627780189,-0.013973702106559,-0.0001668321424226,0.0112953515225619,0.01261269837205,0.0162097241298663,0.0121315990909317,-0.0104853803085017,-0.0170710478775731,-0.0031356557325159,-0.0019267965688863,-0.0119984291489579,-0.0031064504391532,0.0043570741278344,0.0099827633494069,0.014118176138074,0.0101506048699732,0.0088149563600179,-0.0076817009298253,-0.0265560382737288,-0.0291086495071386,0.0139673020567304,0.0187453730290342,0.0061416077480479,0.0012691684097815,0.0036779889363402,0.0058628879162511,-0.0037286885799821,-0.0141344308338726,-0.0059393642777851,-0.0027494008696985,-0.000464592290366,0.007658556600866,0.008792782190524,0.0114307748126157,0.0036280805030708,-0.0083627298347007,-0.0169884581685311,-0.0125104811307444,0.0036112543738155,0.0111115580832964,0.0048469631483063,-0.0003805464607426,0.00120111009921,0.0093458718757718,0.0092700354124929,-0.0028733052220571,-0.0149872897955527,-0.0238055783734226,-0.0080230517072043,0.0129501130133018,0.0128195252647263,0.0113057530120691,0.0103767513438391,0.0051327025329533,-0.0066927364447343,-0.012404978268854,-0.0161029415901627,-0.0050825425785389,0.0005752610439052,0.0068574491287027,0.0092751554049077,0.0058171952284501,-0.0018312737961119,0.0067196873172522,0.006418204835505,-0.0007247979257615,-0.011853921697374,-0.0174530125488742,-0.0082947193272848,0.0031001447997042,0.0069664380325234,0.007884566111433,0.0178985946362477,0.0148462991913428,0.0009303252466508,-0.0172893469189098,-0.0325150323586508,-0.0174301309713683,0.0146685423236754,0.0226229253799804,0.0141324202510763,2.760016930225137e-05,-0.0190897237550348,0.0084324458518771,0.01453413441521,0.0008648683713923,-0.0126806967710151,-0.0218741716959171,-0.015723082411248,-0.0031659588504279,0.0170524425169043,0.0299080130429938,0.0244771931014141,0.0083934326860652,-0.0080864011410461,-0.0381841561644285,-0.0374043337369416,-0.0117414302506927,0.0097726426228554,0.0280369269893398,0.0286332675387633,0.0211993699404045,0.0062751691161961,-0.015145539325992,-0.0221753862023656,-0.0179686956937766,-0.0142707408922092,-0.0136109659233273,-0.0047860753828752,0.0163726248654634,0.0408068899449552,0.0452770105508245,0.0187902248020793,-0.0368581018674978,-0.0509021875496866,-0.071894960526888,0.0213377161000525,0.0485300326312743,0.0348798890773202,0.0088042642099853,-0.0130221407904426,-0.0046215418322005,-0.0065109348307894,-0.0131501370196487,0.0005540907769707,0.0002350771315284,-0.005456807885236,0.0071772499864203,-0.0029123868114201,0.0028304767698483,0.0102068724245761,0.0066868001353844,-0.0042912079641124,-0.009788136268246,0.0014544344107559,0.0042643560523426,-0.0049025112263603,-0.013060430755074,-0.0016044411849945,0.0079501379773103,0.010612156578729,0.0113643361774956,0.0046005726202193,-0.0075375512876368,-0.0200934425077996,-0.0091249973313633,-0.0033569362963234,0.0145113137386491,0.0127553310022956,0.0139950606464369,-0.0033319580839905,-0.0204160554410763,-0.0077358418458756,-0.0021616524804576,0.0069951199784163,0.0100237443673243,0.0043805228087315,-0.004692370615337,-0.0105073687083322,0.0050964580946054,0.0115698630663873,-0.0008246922883766,-0.0166636331343863,-0.0012274776007533,-0.0025138399192791,0.0072153581127132,0.0140427540482818,0.0032482836268267,-0.0033591682979926,-0.0094942197392755,-0.0101107048051006,-0.0089916490189054,0.0128936337710135,0.015690954399209,0.0038879734256817,-0.0128548834825677,-0.0007300862611467,0.0018432237052684,-0.0037038494128425,-0.0120051165617094,0.0040751139141598,0.012021272960482,0.0132029539415969,0.0026945919562265,-0.0138663031783892,-0.0210982119243691,-0.0062894246235235,0.0149667575219288,0.0162238784647255,0.0095159925423719,-0.0013268943888214,-0.0131725955017705,-0.0159912165041399,-0.0012827180325903,0.0032811422466447,0.0146979318056154,0.006744315144605,-0.0037118697427179,-0.0095768393125818,-0.0022420073447871,0.0079307179392521,0.004161978018912,-0.0046505384918682,-0.0083916760605466,-0.0069982822031011,0.0083338079650772,0.0071299460456176,0.002898197825123,0.001382123447664,-0.0009866859529516,-0.0040086630698282,-0.0058665716483696,-0.0050682711805318,0.0030048323595271,0.0073896047160432,0.0069610258327764,-0.0015830478464998,-0.0066888690465611,,,,
0.0039026362256957,0.0019343426832244,-0.005500408197185,0.0111922819650491,0.0115572632002203,0.0061167462722648,-0.0024823389497584,-0.0100198037139492,-0.0149818458307241,-0.0034369633175805,0.0024716677381515,0.0028678559677725,0.0101492712529318,0.0076031765668009,0.0027590126472804,-0.0016199832735518,-0.005433606043479,-0.0136639070475379,-0.0018784111296458,0.0054901459216129,0.0058465689961652,0.0037364864444258,0.0005278194181345,-0.0066805478385935,-0.0056381785405109,0.0048249953633377,0.0065347952104751,0.0052540267598424,0.0003156773852003,-0.0051849164183607,-0.0136029802341864,-0.0066974831073645,0.0037342017392082,0.0125536672358717,0.0134905097586673,0.0043665526759336,-0.0087620872447085,-0.0167792968424713,-0.0098398858780574,0.0046248068049733,0.0115383075165693,0.0110508451665205,0.0019303273122029,-0.0098272880334165,0.0008981710428219,-0.0052648518522853,0.0012492688223756,-0.0014886175911554,-0.0051045631503001,-0.0094314601897712,0.0082610669032678,0.0225372976829698,0.0099601692586534,-0.005454706394996,-0.0142020498323392,-0.0186223658051093,0.0105488853911689,-0.0063526292613039,-0.0218902171590541,0.0120154437001568,0.016906442684167,0.0463925361899044,0.0238217404946071,-0.0282282796963921,-0.068068569449916,-0.0619279881936204,0.0451520902908187,0.0608455072643095,0.0201678296699037,-0.0123699829589084,-0.0168600381951417,0.0222596895802159,0.0056033768021211,-0.0344453636828609,-0.0720640575090429,0.0129064071849736,0.0662233801532281,0.0304737655858606,-0.0018097867628474,-0.0426293843304161,0.0207704418496078,0.0193235153479907,-0.0232511239061099,-0.036671689944438,-0.0106820224665101,-0.0016485617847983,0.0214526299160216,0.0396331781079229,0.0262612240783777,0.0130626637913666,-0.0312643734531708,-0.0899120815462795,-0.0006557851990908,0.0553817470140644,0.0345887404588955,-0.0020663973174234,-0.0378914283711235,-0.0152977902684284,0.0285333625600064,0.031431371148125,0.004484510065518,-0.0526069840637354,-0.0588652658318403,0.0655441965081713,0.0606384338430063,0.0061230863903175,-0.076656317220617,-0.0577831554663737,0.0435397472841601,0.0544107560895952,0.0256391387555924,-0.006783197994451,-0.0415026124211082,-0.0328763113230929,0.0174014544428499,0.0159824996948396,-0.0181406234181446,0.009146774089674,0.0226722905237188,0.0031811786037195,0.0055919301935742,-0.0128525296058031,-0.0158499508263943,-0.0386703496264809,0.0406484317633715,0.0376374882142532,-0.013077619087557,-0.0282958272153546,-0.0264833566312583,0.0016167883940101,0.0363956518483384,0.0302247822740797,0.0184568889555474,-0.032383730587553,-0.0612677943914302,0.0337472360168896,0.0052232321376792,-0.043272103058809,0.0165698851441785,0.0514312039151628,0.0326738557020803,-0.0156844655497993,-0.043537542997926,-0.0216139395695123,-0.0071242012471352,0.021614199761668,0.0306815637618365,-0.005185055404433,-0.0225282423959472,-0.0010635837826528,0.0171476190787924,-0.000105612270371,-0.0106875581917299,-0.007598742761438,0.0149298048247933,0.007278389329694,-0.0045580631717546,0.0006529608303309,-0.0074837307718328,-0.0170054362240699,-0.0040643913816062,0.015775930453486,0.0082221105276267,0.0105104654797582,-0.0060610811162251,-0.007735621067084,0.0105361706422119,0.0092528857706471,-0.0052963641981055,-0.0319135173675196,-0.0154832087971151,0.0103649312486488,0.0093951479377385,0.0154765170626457,0.023684268306712,0.0050763414574921,-0.0149197042908569,-0.0027830032026274,-0.0069541780294052,-0.0149774776068665,-0.0191808305801471,-0.0328995440023544,0.0234637369683354,0.0507154580368,0.0525128639448827,0.0079872564901596,-0.0475621770007822,-0.079060075964624,0.0056649846930291,0.0261476343321965,0.0250486316726758,0.0043469280610818,0.015164825326655,-0.0144396862198575,-0.0155284662835949,-0.0072015691249782,-0.0039957449491923,0.0188188992203926,0.0153999955025844,0.0389395207874642,-0.0218808152802939,-0.0935438741039848,0.005491727323671,0.0310576288701904,0.032180906151011,0.0260303151509225,-0.0125656421620641,-0.0180553465014922,0.0030926235042409,-0.0042500615941587,0.0074987877988282,-0.0159672346305664,-0.0298289808655465,0.0189648842831933,0.0114778435808607,-0.0227999503819077,0.03578042179611,0.0660335730803146,-0.0275040848830723,-0.0760869422517648,-0.0085051857667587,0.0240215536896485,0.0222117479167687,-0.0011865072619754,-0.030606805514244,0.0020391061613504,0.0218575183399984,0.0129591254036888,0.0318114778629676,-0.0228509705852831,-0.0125948152659958,0.0020712267633475,-0.0494605742143811,-0.0414328712395912,0.0470731788482625,0.0549521708490449,0.024605671332158,-0.0032624706381002,-0.013547200022145,-0.0348545636743055,-0.023251379511185,-0.0079958220451404,0.0158005425991577,0.0222372599757892,-0.0105073570175029,0.0209274621902364,0.0227576761430792,-0.0249475724281476,-0.0477234138570491,0.030753376495516,0.0397644136964809,-0.0058982427238197,-0.0463968849141324,-0.0202947623376087,0.0237187242420799,0.0141788085065955,0.0065923349590469,-1.549863573646742e-05,0.0074366282863355,0.0197492301716787,-0.0145278807079584,-0.0128709659682165,-0.0309861611464885,-0.0332158566337436,0.0092337186247379,0.0712389079934233,0.0473475249559031,-0.0137244217943068,-0.0509476629345022,-0.0601697956523838,0.0170264099384667,0.0286818743002097,0.0255971957960524,0.0116487300373823,-0.0081821693005227,-0.023925371044744,-0.0135384955466054,0.0184067763709681,0.0075299664301246,0.0023218754867442,-0.0226784568983907,-0.041546464948344,0.0456584358035057,0.0537893406600842,0.0194296013951627,-0.0110683562113755,-0.0654040852532561,-0.0820345241337206,0.0035422019582245,0.0701177357660525,0.0727026399666257,0.0301949846190363,-0.0284051505311416,-0.0384986767752117,-0.0412234152905742,-0.0183229531767304,-0.0121418243699895,0.0109566428709689,0.0576615500254654,0.0447735620874194,-0.0090146668419764,-0.0420198643856017,0.0059312562816453,-0.0212534359768461,-0.0400453683732169,-0.0028060089675784,0.0659615639742429,0.0327263517778524,-0.0299566344016363,-0.0285061967633687,0.0182492157793145,-0.0060915890898291,-0.02065434691368,0.0199220424317396,0.0148790148022269,-0.0111551856532684,-0.0134593949034781,-0.0146617244271275,0.0186009898417753,0.0372543896108932,0.00158702636927,-0.0170866766829182,-0.0265397302989141,-0.0525990586834227,0.0084736280911019,0.072598955204288,0.0558801642075608,-0.0019750378463253,-0.0729839374250342,-0.0515069588336925,-0.0108022322738808,0.0343437843321898,0.0452897789244782,0.0252170718637795,-0.0008299151031376,-0.0181893702626427,-0.0333845608565469,-0.0397918732549889,0.0318184012189849,0.0336846377504425,0.0132912317974012,-0.0112475475460513,-0.0315673114043614,-0.0155873564002731,0.0153542924256439,0.0202704989097499,0.0261618258354707,-0.0110953679622796,-0.0020934532597761,-0.0090211517002511,-0.0328977616435831,-0.0210121441691457,0.0128206870513005,0.0388431823333647,0.0297309299925577,-0.0037158712142432,-0.01982643461732,-0.0094502313522864,-0.0114109996743364,-0.0308913824802745,0.0058004873601029,0.0346485200606867,0.0328471601697297,0.0091866892863664,-0.0133565168983205,-0.0719474044954844,0.00319725462399,0.037619131510977,-0.0219916314366972,-0.0070114601317594,0.0597628598114276,0.0440373968536334,-0.0101597703359709,-0.0510718402455045,-0.0615637183038256,-0.0629458062953659,0.0493706193457071,0.0723742634455951,0.0475451321691949,0.0113936618181244,-0.0156307095182225,-0.0356308234841239,-0.0355859529342957,-0.0290066735091354,-0.013246944573612,0.0164482721113245,0.0528851093853863,0.0308514519890365,-0.0142708790094093,0.00787574318803,-0.0080944223399048,-0.0265753295384624,-0.024958250321206,0.0038209333672184,-0.0044391505979785,0.0164235484180618,0.0100318161538123,0.0078961909143941,0.0115615668649846,0.0114538611262598,-0.0107320791579341,-0.0321308248798081,-0.008289876234039,0.0002266117711251,0.0120249671413604,0.0267150543858862,-0.0038153791164653,-0.0311251352225233,-0.0268612744263276,0.0563683266437279,0.0482707080693228,-0.0188343928565537,-0.048919694304803,-0.0448021996736501,-0.0123152381931615,0.0164277134050848,0.0817989417047527,0.0628338993292049,-0.0041360999136859,-0.0837899515644501,-0.1482848036432018,0.0245297841574501,0.1076212054002214,0.080723974829325,0.0294776869123182,-0.0343162890187716,-0.0853398127689712,-0.0834514606565614,0.0029849738040194,0.0880866559636843,0.0835640177803737,0.0184438401747968,-0.0609231896388022,-0.0824218566339419,-0.0644373320598079,0.0646154014544386,0.0972687771405843,0.0602348333597397,-0.0312956922190637,-0.1018209147778875,-0.0600990809803804,0.0142979799707796,0.0835258638209182,0.0240840208082445,-0.0409631765389057,-0.0195192899260314,0.0525380385244872,0.0476043078634243,-0.0154708691868985,-0.1036284887675653,-0.0620882745369316,0.0527402360134579,0.0563056512506992,0.0245977643920314,0.0020371871974492,0.0082102572471849,0.0005777232919267,-0.0215136481319899,-0.0130970243310087,-0.0740170476591229,-0.0510565965456351,0.1114699693199205,0.0756778216406158,0.0060010605468262,-0.0149031546985234,-0.066230597334771,-0.0546252884312365,0.0231917348676425,0.0459331240829725,0.0208154456063334,-0.0265466624726615,-0.0256145364097895,0.0239112637210057,0.0067229754506407,0.0088151898003787,0.0039348619454237,-0.0038512605507228,-0.0131167753119343,-0.0235208301274772,0.0018830033404821,0.0158388361862681,0.0220159067860098,-0.0195157181802991,-0.0298940807236986,0.0165849874321419,0.0323866845906791,0.0358289057204,0.0040820983955183,-0.0498631736268503,-0.0604451436578384,-0.0313703928459831,0.0488568123644978,0.0615670751987643,0.0269714405201621,-0.0198726029493263,-0.0217265910886357,-0.0146525556525801,-0.0046453612762569,0.0022551644829302,0.0046122902398198,-0.0057607499840297,-0.0265403920996912,-0.0341559621778169,0.0623782041104961,0.0883071303348275,0.0335254555220081,-0.0424769929095464,-0.1326296632068873,-0.0803933164707509,-0.0024435695994284,0.112514856350534,0.116113752672238,0.063148936014897,-0.0119903944294571,-0.1076039144972467,-0.148943995458075,-0.0687526851184764,0.1111857524017436,0.1133810284578604,0.0509139234926855
0.0042795904147783,-0.0079160695133688,-0.0141168337096143,-0.0065880838239487,-0.0031990407668461,0.0016328088779477,0.0071203065792765,0.0053145090616992,-0.0012911173705492,0.0012925619527302,0.0059471913018737,0.005832689826615,0.0016979194488725,-0.0099210883385082,-0.0157569927763118,-0.0063018334386911,0.0022387659218009,0.0048478529861519,0.0092908467192192,0.006512339389678,0.0061847961951598,0.0035160119573581,-0.0020450215327557,-0.0072882545325795,-0.0101258539903249,-0.005642257260473,-0.0096540056916572,-3.011956807333627e-05,0.0071930513871813,0.0147700499747518,0.013161703936122,0.0086552547578617,-0.0010406117543738,-0.0116889387867893,-0.018983160316691,-0.0168162430666002,-0.0031347053066026,0.008063672177161,0.0166527534030077,0.0131677405760428,0.0074173175309023,0.0019224894585558,-0.001884983340023,-0.0102292063689263,-0.0141739366184072,-0.0148405395142313,-0.0076717890270425,0.0088836530850819,0.0196838934325302,0.0155750095670426,0.0077765563218373,-0.0054687127331066,-0.0075574359584645,-0.0070448189870056,-0.0077667545965451,-0.0127037916536792,-0.0092634113135573,0.005939847414797,0.0183244580293477,0.0172764136237399,0.0097153984283805,-0.0011504249815295,-0.011891172440335,-0.0098446460524463,-0.0127149107783556,-0.0106929452976406,-0.0011213087744257,0.0061176121194485,0.0097912490852711,0.0194242166996593,0.0143620535427698,0.0032345030180816,-0.0165540475754368,-0.017893917331206,-0.0081753955434385,-0.0081031175762557,-0.0037853700814546,0.0078450125871081,0.0167123166678333,0.0130801072125033,0.0099016726561164,-0.0006129543091225,-0.0125402217126056,-0.0133405276396958,-0.0071754431742026,-0.0012768011656391,-0.0028257261936491,-0.0019816797844329,0.0100903532733223,0.0139266859513544,0.0088746843229855,0.0016221096403876,-0.0051970922578327,-0.0093152428878544,-0.0099042632449653,-0.0037568711767252,-0.005689106362895,-0.000768974405298,0.013309237577063,0.0117137936179014,0.0065631686857269,-0.0005041311516683,-0.0075238493914546,-0.0088374323965593,-0.0089164176888184,-0.0017523795302094,0.0107012007312905,0.0078715906741339,0.001263262843559,-0.0055210491374866,-0.007408771705969,-0.0024019864228022,0.003398108775848,0.008195906470083,0.0050763974856459,-0.0024467576089278,-0.0018788062143082,0.0042805151846733,-0.0053457091805437,-0.0159133250020421,-0.0048433535996351,0.0021627439866472,0.0099123357499735,0.0126506091300806,0.0107686771527571,0.0018852150807499,-0.0064792444457624,-0.0080236571864904,-0.0115658868954629,-0.0137622476166,-0.0041285723893941,0.005913078653884,0.0168610303254892,0.0135859786948022,0.0105483332751874,0.0007294323921214,-0.0113515347342383,-0.0143614173010765,-0.0112602600776319,-0.0029354691976501,-7.485846913391953e-05,0.0078072695552531,0.0096357736759612,0.0036913070815678,-0.001653683588798,0.0146696659170791,0.0070115847293433,-0.0125982141843282,-0.0195207296769329,-0.0163370270495965,-0.0026284650133892,0.0095460674183308,0.0116523528058118,0.0235840618809884,0.0173110522018151,-0.0063207560073287,-0.0212566031592485,-0.0523371432546659,0.0053470292012316,0.0409253295528996,0.0194721806119402,-0.0019324387323406,-0.0143353680997738,-0.0148058824884872,9.315936675900994e-05,0.0085306042686271,0.00685237380809,-0.0007806330549917,-0.0063218766836949,-0.0119935953491262,-0.0099911551151129,0.0392352248983281,0.0244942939755874,-0.0082632104116938,-0.0467919256609505,-0.0535923952704114,0.0311442315714114,0.0450933020940084,0.0338549935060279,-0.0031619485430814,-0.0272066069810404,-0.006872702642707,-0.023303154710347,-0.0072022859346892,0.0062369206021449,0.0154986727316425,-0.0033497278522455,0.008681272927441,0.0214160430662088,0.0006704382621948,-0.0128162752620241,0.0016978312049739,0.0047929156241616,-0.039744622244095,-0.0264932976836389,0.0049769905725395,0.0096608313420977,0.0683275280395172,0.0446713004640854,-0.0157490246501273,-0.0509760574940607,-0.037764163910817,-0.0315773768149384,0.0024226288799622,0.0256280730260863,0.0373076546378952,0.0307166359703936,0.0124877119899961,-0.0134635653035335,-0.0289346090878856,-0.0393209056410225,-0.006231487712636,0.0153805668810869,0.0153629264026006,0.0077413850561726,0.0083070154673832,0.0031050229623934,0.0007488476528616,-0.0024856663608435,-0.0027290380388659,-0.0189953920596943,-0.0019774416593437,0.0005982363373145,0.0057776220938618,0.0060327715038491,0.0087631131407075,0.0040150072049434,-0.0130812619598592,-0.0119481044995648,0.0050155210778232,0.0170611436157315,0.0106565525556399,-0.0088594934135945,-0.0220010644602288,-0.0092073378814253,-0.0044522991441855,0.0143149224495827,0.0177593381306459,0.0251378714122412,0.0028413577704938,-0.0200228893720875,-0.0368137891114223,-0.0402504614815569,0.0141749530800253,0.059447156059281,0.0419712307407966,-0.0114002148373778,-0.0260971321015109,-0.0173155909011443,-0.0257225131757654,-0.0208819877839052,0.0217991015150069,0.0202926140295558,0.0103597781188676,0.0185576387432999,0.0112586541552619,0.0041340179513055,-0.0208982820238302,-0.0312393643956136,-0.0456784703068283,0.0020676694903922,0.041908275978588,0.0356294077072682,0.0116885135305011,-0.0040142792048129,-0.0146859627720889,-0.0079641134936324,-0.004774685635732,-0.0054793348114596,-0.0093115913283816,-0.0124796730103063,-0.0025130749434815,0.0101826261190312,0.0215565243374654,0.0313016825636073,0.0174224960732855,-0.0239804475708861,-0.0414144059904632,-0.0271917878839618,0.00608024483002,0.0328402738603391,0.0063595813341279,0.0119727009192315,-0.0022601562452581,-0.0196716957825527,-0.0034589433606048,0.0145778756884857,-0.0079830074784021,-0.0021223070860793,0.0082123924441451,0.0009882314572356,0.0044548256354066,0.0050959319801176,-0.0177463073033647,-0.0315651219751384,-0.0047233439118431,0.0405821305263318,0.0273538625111329,0.0048872610730271,-0.0113509187057144,-0.0123170923947873,-0.0180587036047782,-0.0228354113764245,-0.0094711103037333,0.0254317096457735,0.0297193702282659,0.0160617156604987,0.007213844545104,-0.0258367582259434,-0.0390510793326911,-0.0079827799958191,0.0188601728394778,0.0316719918174845,0.0168046460199254,-0.0084320845791857,-0.0405170155215492,-0.0247989749759018,0.0266901627156355,0.0300926614800049,0.0094824322150917,-0.011099709548434,-0.0138894047457981,-0.0051646941255085,-0.0021973625052947,-0.0051341876552778,0.0039663014751466,0.0107240866034918,0.008386723134291,-0.0006241253376066,-0.0023136011476948,-0.0116555282157392,-0.005006913988523,0.0052887157060503,0.0042778383508602,0.0036827514679804,-0.0015574866562804,-0.0018972562599184,-0.0011958280281521,-0.0056681670984009,0.0054154534105073,0.0032346878525916,-0.0009353260644424,0.001426511193285,0.0006871053685056,0.0031053523289484,-0.0068458960215568,-0.0114651690316203,0.0014083637654553,0.0080931063512969,0.004832505316376,0.000909708568117,0.0070441029964809,-0.0014339217321688,-0.0046811222096937,-0.0081277086357391,-0.0068414925879001,-0.0022972516570188,0.0052720607088015,0.0104765832035912,0.0067445127669346,-0.0063559507735954,0.0019151798231397,0.0025078017892022,-0.0045725526168221,-0.0033500525708865,-0.0085492813542201,-0.0061474473573462,0.0057201691366891,0.0093478271251032,0.0062828380092535,0.0026245756674413,0.0016131216801164,-0.0023440930648178,-0.0064439422792671,-0.006974311783674,-0.0047765460472728,-0.0037766239193291,0.0030117831375138,0.0084323241036885,0.0122055800821943,0.0044232945140081,-0.0012025178790638,-0.00553248299137,-0.0173498731445849,-0.0099763425428291,0.0138397136535556,0.0128022622318239,0.0010861842472803,-0.0047292511930682,-0.004064063087971,-0.0077637796933055,-0.0131957772518503,0.0182432488766983,0.0220886641529647,0.0048770460017751,-0.0078708224119151,-0.0105349355451795,-0.0146182599156193,-0.0201196729019361,0.0015654288358781,0.0131127506733672,0.0216299164566034,0.0175050005647711,0.0048089741549284,-0.0063798350310207,-0.0156668442823017,-0.0189538622571336,-0.0124960122616248,0.0020730770057138,0.0085636099986087,0.0028600057643613,0.0107818235366107,0.0210435810150648,0.0076831384044737,0.0020674962678524,-0.0147838185338355,-0.0288025596135867,-0.0224367962182756,-0.0067320727719247,0.0195675713282462,0.029674530517425,0.0202804485016254,0.0063327857525644,-0.0031392103376826,-0.0233649653029512,-0.0328466281345779,-0.0028539568977095,0.0074969189849661,0.0187490424625786,0.0109646183063076,0.0067802938970913,-0.0011772756327517,-0.0153648210011631,-0.0127821429136005,0.0139871363065753,0.0103366128524632,-0.0026520081301793,-0.014472477826033,-0.0145080772441639,0.0124484487947485,0.0212166879932294,0.0123118088252247,-0.009319904462528,-0.0406001410337306,-0.0214849093316725,0.044242679672568,0.0360160399859497,-0.0013782314335034,-0.0166613426024902,-0.0215284779533374,-0.019220982813612,-0.0024163271936741,0.0126268087947979,0.0182451301817191,0.0139748539490983,-0.002448497074558,-0.0057219555746419,-0.0014175010432333,-0.0051780009433252,-0.009984580034324,-0.0068498576286266,-0.0010428260696625,0.0100918217671219,0.0125185854526192,0.0066129473784993,-0.0092975932341356,-0.0158202955382227,0.0053187641938045,0.0200398417686676,0.0006281403509972,-0.0128209357427068,-0.0048615007951477,-0.0100136794490394,-0.0128229936727877,0.010816167925235,0.0196020238191815,0.0186765714775852,0.0050775193950809,-0.0126068476780272,-0.0157970658171623,-0.0129270169710265,-0.0219551698396547,0.0092583251951908,0.0216613631025255,0.0149620928137495,0.006466867609143,0.0078480035781563,0.0047122225740058,-0.0094042437127449,-0.0298501735156228,-0.0676220492023114,0.0204926238372401,0.0591433731938011,0.0371119673364849,0.0085599956374676,-0.0102581171738996,-0.0260338763374463,-0.0312946924824011,-0.011422257016558,-0.0124639443807469,0.0139303335906335,0.0358527810743114,0.0205783561026102,0.000169315982948,-0.0085592282995159,-0.0078650789842086,-0.0067988284376418,-0.0087471701244909,-0.0138448771717441,-0.0171407189640439,-0.0086365562754937,0.0355919838836931,0.0434661161366464,0.0169773918457034,-0.0115070247728637,-0.023545850280131,-0.0320224590769293,,,
0.0101376314943572,0.0157779258339607,0.0087826177506398,-0.0038641912253101,-0.0147124729048988,-0.0121122907908485,-0.0052111090703878,0.0023304107277899,0.0101911749575498,0.0128599988415331,0.005552008522293,-0.0074801432404568,-0.012229756382707,-0.005430226894407,0.0044017326513717,0.0047616191878664,0.0023186616697163,0.0019256763330454,0.0007097946355938,0.0019325407700968,-0.003998521171057,-0.0056548218489421,-0.008339198292671,0.0036306562881354,0.0079180567760949,0.0045902450385226,0.0004614872978898,0.0015228505526048,0.0041699530069469,-0.0029387477816126,-0.0114202760636211,-0.0096793396491785,-0.0033299377120386,0.0047178791829722,0.010670593726998,0.0140081053248767,0.0116078461795548,-0.005089053690326,-0.0187147781303602,-0.0087200824651731,-0.0069316052255515,-0.0026582824666451,0.0028265447598339,0.0122578562690904,0.0135057605906838,0.0077918798602129,0.0022185960622746,-0.00442575089216,-0.0156518453673058,-0.0202513642651793,-0.0029085886532199,0.0041577319154493,0.0094961641263298,0.0136298998007775,0.0127415399265848,0.0065153006110965,-0.0039801980420008,-0.0118639788958838,-0.0207800595727903,-0.015245178575308,0.0040372265029926,0.0159412441905705,0.0158313430797909,0.0094094889991663,-0.0006292212546071,-0.0049812395823547,-0.0078319972510845,-0.0141653417979416,-0.0037713357199019,0.0046439281572453,0.0082975895526022,0.0044184550777283,0.0014824725029299,-0.0044820563653963,0.0014715762845556,0.0028060772526451,-0.0016353688583431,-0.007867323092161,0.003994848671905,0.0054293920453193,0.0007550557024744,-0.0068846452725341,-0.0062049671688862,-0.0037470040253782,9.54100080987575e-05,0.0074984177177829,0.0196574037460163,0.0179714414214411,-0.0057938313258493,-0.0328496304136921,-0.0381869958131112,-0.0020714660590587,0.0368712667680717,0.0307447227551987,0.0114228578888074,-0.0049035349119449,-0.024418146851074,-0.0195590753233548,0.0002947501881711,0.0005966189218687,-0.0033293186774762,0.0115620885738731,0.0151871874636202,0.0051504218152363,0.0140939393769111,-0.0146342801578091,-0.0234742547750132,-0.0065706854139173,0.0063415228155075,-0.0043154476762585,-0.0009253853897109,0.0145772958069933,0.0218531803834428,0.0053800770779726,-0.0206233553757246,-0.0144041114820293,0.0121180659021528,-0.010091452676619,0.0028505449767064,-0.0139368375138276,0.0093108898406562,0.0078451601967034,-0.0237202001141316,0.0231214696337261,0.0412043707163173,0.0229579260244763,-0.0263590278899738,-0.0722496048578149,-0.0458090445910714,0.0302315122593657,0.0425040926894483,0.0313803470878424,0.0189951331402992,0.0045295146344154,-0.0265134181488878,-0.0102320169444302,-0.0243684215253282,-0.0311822126069876,0.0003485874792792,0.042868263040877,0.0054195650315799,0.0092189695254823,0.0163479688053806,-0.0004193505667612,-0.0100229741318791,-0.007648018976305,-0.0354730146031626,-0.0240220984059584,0.019233651377655,0.0388312218711177,0.0242456121610007,-0.0075110488680678,-0.0221416894807748,-0.0047199714456543,-0.0089673856988317,-0.0116376933540595,0.0100875149307967,0.0272553202407939,0.0116789943703437,-0.0125930620735723,-0.0304265389379807,-0.0068753098529778,3.086903439387268e-05,0.0119552283821354,0.0277341747822584,0.0170504116417742,-0.0132148515633257,-0.0168907604342974,-0.0154702283583323,-0.0071621419183114,-0.005770733385197,0.0054414538827991,0.0200006936096176,0.0173603012303347,0.0111462854699288,-0.0100333496130163,-0.009810600622921,-0.0186050368921001,-0.0197843961352453,-0.0058647854632025,0.021315354370756,0.0264967149607628,0.0246199991661718,-0.01305233513092,-0.0291799443112633,-0.0039253801777049,-0.0018820217340259,-0.002810551677722,0.0015190291872313,0.0077948209465434,0.0064028060580315,0.0082006426086916,0.0067763941179744,0.0026697702348007,-0.024526755509198,-0.0236284479769907,0.0169302302141839,0.0166189160755944,-0.0007152980895051,-0.014447943610974,0.0048438551817306,0.0061887132311095,0.0122707131431539,0.0082460892672297,-0.0104909981217454,-0.019576076126204,-0.0187237939885049,0.0053348238316633,0.0174664939814517,0.0122906101721413,-0.0029235429306337,0.0107818427937195,0.000885688711944,-0.0177023388319698,-0.0087993641098491,0.0029090341230679,0.0016651832052963,-5.5413072587490305e-05,-0.0084837445408937,0.0206517420607437,0.0122576255734118,-0.0255589229671503,-0.0064124323953999,0.0153167642263325,0.0133594753702069,-0.0163508830665387,0.0021076398891643,0.0078389419112969,-0.0204215579103265,-0.0187162496907556,0.0231680239405493,0.0104903069044043,0.0024371594892349,0.0090099822528502,0.0002262961105603,0.0041265477574478,-0.0326479273861079,-0.0251608589882035,0.0122891928440397,0.0371637975225727,0.0206827375751888,-0.0166419829333119,-0.0170092133665527,-0.0203616045724711,-0.021243348022275,0.0463087909395368,0.0379875607017464,-0.0075349330492802,-0.0115179079214386,-0.0425256270746294,-0.0369621050047409,0.0105509355069901,0.0361970001902652,0.0441122521449928,0.0328081129870778,-0.0082530506147889,-0.071456336268827,-0.0371943568064561,0.0028342544731195,0.0221492792230456,0.0234177664630085,0.0007611804824751,0.0366799408407831,0.0250052125560242,-0.0349631177273472,-0.0516367556931746,0.0056665394359266,0.0102917563439511,-0.0251431078518322,0.001583313942711,0.021333477549275,0.0265314394019723,0.0343253042446672,0.0201570434007778,-0.0254282188167784,-0.0827534594603416,-0.0299906082899139,0.0277802681554428,0.0157424725332467,0.0379574298109743,0.0229508623781262,-0.0089735213068178,-0.0112680916723663,0.0100427163121395,-0.0090708483283211,-0.0338954191892795,-0.0170638170982423,-0.0044048222063785,0.0085041423976272,0.0416856025033721,0.0162762492349815,0.0127078763541614,-0.0004646058075549,-0.0247115125084297,-0.0305704483028121,-0.038825753022572,0.0116898224024621,0.0350041297336609,0.0269479650873064,0.021443462427252,-0.0025416774197165,-0.0315786429012377,-0.0425544777637607,0.0126804826019973,0.0253595618353057,-0.0007079086100465,0.0095267655217978,0.0073368127021626,-0.0157806074419251,-0.0165674187583968,0.0020244455729413,0.0051085062281711,0.0099742561503246,0.0030368890531847,0.0118336617176702,0.0003031677602429,-0.0183785762307146,-0.0140314263851508,0.0194766521553017,-0.0003947367659697,-0.0466973898478419,-0.001575541324594,0.0531326213205078,0.0439322334800841,0.0069112912169171,-0.0253136924404104,-0.0524455123784622,-0.0520057516472198,0.0098317517905316,0.0470124205569383,0.0386877248349141,0.0129190456655704,-0.0010818286743518,-0.0183284376969959,-0.0350430027945477,-0.0097714652630635,0.0199499479980507,0.0012693801328359,0.0002511671354636,-0.0069632434570241,0.0053707465026191,0.0041800780861468,0.0188666154150157,0.0112802195138989,-0.0105577797250197,-0.0286606936681979,-0.0087961090282102,0.0036090400190777,0.0061251860004333,0.0108983219600541,0.0073305082041262,-0.0067259022900753,-0.0005431321564585,0.0026870734388096,-0.0057966055539038,0.0050741537289733,0.0116066338466957,0.0025982299429199,-0.0130358273049588,-0.0429597951135344,-0.0077878166008861,0.0406189399850216,0.0376769907744695,0.0013152357017751,-0.0164893356130319,-0.0162631809298393,-0.0146150868963528,-0.0039752709844688,0.0115472265765983,0.0137583580312323,-0.0071234475544983,-0.0096890912321217,0.0071557318807248,0.0128721645913408,-0.0010353579991018,-0.0064926900467415,-0.003204390483214,-0.0021807554745872,-0.0019168323614089,-0.0023359667782401,0.0008064407047552,0.0055473091506427,0.0114403752427162,-0.0007798237041548,-0.0028923967013769,-0.0141495548313309,-0.0073685699396625,0.0044208506181492,0.0099333849001056,0.002940054108303,-4.740897880400121e-05,0.0015192278713255,0.0005768560947987,0.003754371061283,0.0008267778737303,-0.0084498609436168,-0.0140071383039168,-0.0120741121109229,0.0061792872306249,0.0161573990493222,0.0143551689982557,0.0099309533351022,0.0047741526539123,-0.0123660583046088,-0.0241353847995197,-0.0121731301900847,-0.000756268538468,0.0141395626944262,0.0092854786060512,0.0062354960406484,0.0030166604771453,0.0013013084155761,-0.0028313056656521,-0.0074678136433902,-0.0073438073697467,-0.0027007157963408,0.0049747313302991,0.0061780948089447,0.0007985618842199,-0.0035092556323717,0.0006301421474496,-0.0007795051410351,-0.0093020821352048,0.0068327012205784,0.011609034536004,0.0046719302990897,-0.0010676082927234,-0.0087972114384376,-0.007196295280679,-0.0077939058490961,-0.0065403933540064,-0.0005828753889451,0.0152735767229978,0.0198042484145119,0.0106910407597003,-0.0038681877753243,-0.0136199614618692,-0.017697098302079,-0.0156876491480708,-0.0021315302851879,0.0082125818706955,0.015552274546279,0.0148479933077297,0.0154740854852039,0.0057914799686193,-0.0179646053248545,-0.0290510762167533,-0.0181966693437528,0.0019757693360158,0.0113448962597409,0.0208143166281395,0.0181393966459632,0.0099440475761111,-0.0090576257217939,-0.0186388243919274,-0.0135467289171593,-0.0084810271359099,0.0007066577169672,0.0068225350395096,0.0097408270758886,0.0064296142897354,-0.0010641959989631,0.0046753763387746,0.0118860857865492,0.0072193579094105,-0.0045993759009042,-0.0255317583326646,-0.0526980232404261,-0.0284179755416909,0.0633717831742499,0.0621343419605427,0.0252605256667432,-0.0089565507823221,-0.0369977401198302,-0.0359746925545117,-0.0415237791020032,-0.0046739900144654,0.0359173766616655,0.0420380487271686,0.0253062034242115,-0.0026218503601969,-0.0271924323564198,-0.0302915327527665,-0.014038472666914,0.0320221598920076,0.0334410991762689,-0.0004783029140012,-0.0524607416912742,-0.0581756302991772,0.0389683061381453,0.0537136465822532,0.0366149390844826,0.0030122722492384,-0.0145317762945994,-0.0278449168933401,-0.0557131892654156,-0.042071546139113,0.0244669637780515,0.0689021564606223,0.0552086240622991,0.0069879433177325,-0.0390160231048094,-0.0426121663904798,-0.0223967574515762,-0.009060470845179,0.0173294041334609,0.025898296503056,0.021539283352705,0.0028984685745116,-0.0060710956541923,-0.0220796850375783,0.0011148238590321,0.0039709579265109,-6.30422742915746e-05,-0.0268630089463922,-0.0076108476954432,,,,
-0.0089114334770203,-0.0063130932431609,-0.0068484398175791,-0.0052038285187662,-0.000369854171363,0.004632999321478,0.0041493249958618,-0.0014410553849512,-0.0021537897882082,0.0096129165116651,0.0080661761996247,-0.0020691681905246,-0.0056584151728656,-0.0042092525329148,-0.00733130153823,-0.0148443297061237,0.0059928612850181,0.0161991545478604,0.0116876927811103,-0.0016944487048441,-0.0081531676531513,0.0014064746070157,-0.005642334299682,-0.0040255216317128,0.0009768311572693,0.0032659558020639,0.0012575459645352,0.000814921513362,-0.0016985601217148,-0.004478240713644,0.0021850411034162,0.0063830096411581,0.0008087271169904,0.0004496394051648,0.0037038654248218,-0.0051183463866867,-0.0120703573058506,-0.003157590343586,0.0058182289729542,0.0050310478769744,0.0045508581520759,0.0036632369602355,-0.0011074792120752,-0.0041742126723561,-0.0005930646432956,-0.0026090204670345,0.0004083466609763,-0.0012212841324313,-0.0034885896167923,-0.0020867652232262,0.0037654597084397,0.0119162860324587,0.0035249041331394,-0.0100517594246169,-0.0040338660914417,0.0036059531408399,-0.0024649181584132,0.0006042834852989,0.0024004640100453,-0.0055412742932206,-0.0096371323375068,0.0098617709624221,0.0127753599942149,0.0054771667843893,-0.0071061702767844,-0.0038480155415756,-0.0052234497312394,-0.0120832215765659,-0.0053890627169653,0.0097123075343305,0.0138497911132949,0.0117427298455071,0.0059906123421174,-0.0026769803236679,-0.0151070677535071,-0.0271757317498891,-0.0158792802310058,0.0160377777747117,0.0253281514126502,0.0207138658025869,0.0059620030994001,-0.0079701435572561,-0.0186392555302535,-0.0137308330485015,-0.0026215908664041,-0.0002024835467948,0.0032994923250034,0.0019319630441216,0.0011576764806978,0.0044286463634404,0.019903908845087,0.015345244900366,-0.0013578112954377,-0.0244582110923224,-0.02815104668669,-0.0084542285657004,0.0039567017810702,0.0069511170018879,0.0136624678796892,0.0216736503789837,0.0130326259682038,0.0045903323706765,-0.0095086405006456,-0.0196677762154028,-0.0280611085048892,-0.0246471133554237,0.0161902603781782,0.0267444444430203,0.0205099213559632,0.0079753922975133,0.0044085641531555,-0.0069868410728565,-0.0172230214754299,-0.0155618151329856,-0.0022074166355397,0.0028014380169776,-0.008339824286289,-0.0075432069379022,0.022425622470084,0.0357037048907978,0.0111645014087152,-0.0115375573043704,-0.0274992671721617,-0.0238960914354265,-0.0131845212173409,0.0022154956815893,0.017169814278292,0.0153251572103397,0.0176561181005619,0.0276660127660992,-0.0061515873493263,-0.0363551881865182,-0.0366629654586982,0.0026064540013849,0.0062580596487245,0.0156794192855226,0.0207554671249939,0.0046356176750293,-0.0103270331933681,0.0047671061082146,-0.001906269443752,0.0067699127285881,-0.0053277210931627,-0.0262784746013272,-0.0209801510392765,0.0068973709074724,0.0129430280202434,0.0315065242446813,0.0166708949789333,0.0023237542365274,-0.0069201538536857,-0.0172860710585733,-0.0266592226003519,-0.0217927033981027,-0.0011017288855542,0.0181834026773036,0.0296572409058358,0.0235621433684549,0.0065466440809755,-0.0084755923719505,-0.0250155423024527,-0.0280751159792128,-0.0053685119167703,0.0128149785685953,0.0121365413755426,0.0047967989672575,0.003018007356205,0.0106526668346344,-0.0043140148525133,-0.0061509493419261,0.0084109832144623,-0.0049252901841189,-0.0248656605618792,0.0005656841451882,0.0098563276615061,-0.0012620227274587,0.0063431453472202,0.011637039630821,0.0104292164515668,-0.0024173156600758,-0.0195399147403851,-0.0041844660708038,-0.0016055242761722,-0.0099640151763759,0.0126670858630619,0.0076194398949923,-0.0006098512490788,-0.000624177204755,0.0057421065947044,0.0060091478728995,-0.0052937003749065,-0.0071836720191445,-0.011247374754348,-0.0021868357169709,0.008758233719042,-0.002212608401335,-0.0035142768337793,0.021416713616688,0.009743764786604,-0.010015726532562,-0.0104570842721848,-0.0113283218199194,0.0014002707757866,0.0001666078536609,-0.0024185925391954,0.0143626724261065,0.0074617130988956,0.0008250651714316,-0.0050360318845501,0.0002744813968794,-0.0132025431157453,-0.0229158847467,0.0241781142286991,0.022290493589828,0.0033936623929666,-0.0231234501431154,-0.0095356625974621,0.0039702631299082,0.0056700954696766,0.009775304818172,0.0040115524049013,-0.0005492703501249,-0.0084177073773195,-0.0214183137491173,0.0046294400308195,0.0062154707784333,0.007250548524439,0.0082304049503763,0.0149964395154664,0.0062047967223646,-0.0130926065172641,-0.0227567208251256,-0.0459018274269844,0.0142955846023407,0.0410596603910219,0.0274583040593199,-0.0100606913504868,-0.0114298285648767,0.0134915112970741,0.0030622954079538,-0.0295889193840821,-0.0436166783472784,0.006376017374014,0.0390459860143611,0.0214765688238904,0.0006895877149323,0.0072949493358801,-0.0114051953715933,-0.0052529806794538,-0.0324403919538998,-0.0114469934146389,0.0312803153995126,0.0066340636599091,0.007310114033899,0.0158767561054484,-0.0280287552159975,-0.0127029408675434,5.9097131148883766e-05,0.0066269213671309,0.0110740198589651,-0.0042601535000174,0.0129413528113659,0.0192934597937258,0.0004480374655685,-0.051489453319769,-0.0585732930104158,0.0286460098661394,0.0782509609464798,0.0384775319334554,-0.0116800040805179,-0.0560562962946063,-0.0593863896245789,0.0078007846298867,0.0451662100820336,0.0315756051102236,0.0111650493156329,0.0134190822648626,-0.0349012394121632,-0.0627968736043689,-0.0340653405593955,0.0551690844034182,0.0609539800693162,0.0200426662667671,-0.0072591344167536,-0.0192595479993048,-0.0445132300070821,-0.0535332785969101,0.0308332984665443,0.0514190483858094,0.0123211382517968,0.003812426406686,-0.0181196328987738,-0.039896870497785,0.0172477450407575,0.0322757968891782,0.0181687799344028,-0.013285119276018,-0.047110449900996,-0.0321980272790874,0.0255286878183324,0.0351159377189935,0.0202269150809042,-0.0005528748789328,-0.0102948791570242,-0.0035194233724111,-0.0128793288338216,-0.0131843692416213,-0.0028742643763247,0.0134713689016168,0.0067024771538186,-0.0100790808321614,-0.0023230810956221,0.00674231406587,0.0246250673072111,0.0069999449029099,-0.0293115508679615,-0.0002919985978244,-0.001125323663492,-0.0184871779249864,0.0098705909694497,0.0152949550523661,-0.0054186818919822,0.0039608770807754,-0.0086351885509878,-0.0016195632794681,0.0178031405897305,0.0154351064198443,-0.0062421096494865,-0.021017336853662,-0.0122308535551623,-0.0057655235479637,-0.0120991470701942,0.020388308898815,0.0217750922728147,0.0043328393760377,0.0007530749332641,0.0052884663437959,-0.0091639212599217,-0.006884056088862,-0.0132159894837975,-0.0141359044084509,-0.0107951910321588,0.0046014709136821,0.0376115134743059,0.0208032918836473,-0.0014194877643624,-0.0140618191332068,-0.0123738756193923,-0.0029352159901597,-0.009355259402819,-0.0068245740591314,-0.002636649002325,0.0090349870444637,0.0128351935517817,0.0094246933961161,0.0002820272356521,-0.0020971504067653,0.0005781496607911,-0.0009530923381112,-0.0078139226520608,-0.0111563693819601,-0.0088027662057157,-0.0037947446805184,0.0083839292318676,0.01618620398816,0.0153402338789018,0.0038285577081355,0.0012313717192722,-0.0051146258262184,-0.0175583800222206,-0.02792853804209,-0.0125481660005727,-0.0100903709705077,0.0517234085989492,0.0622660882594941,0.0063626283687265,-0.060573014117336,-0.0377332062240724,-0.0329122782547787,0.028262277145994,0.0405131133268804,0.0230105173919319,-0.0017311780845402,-0.0136805189886259,-0.0209238149213926,-0.007558635571114,0.0039140937499775,0.0040541801569964,-0.0095148425969923,0.0095005966000027,0.0137794813276541,0.0127599900267968,-0.0003423290168903,-0.0144564559057276,-0.0157375025798235,-0.0150306448814692,0.001004573400682,0.0122398057622088,0.0249291138041124,0.0157222239127604,0.0019909911590076,-0.020359281652211,-0.0484181872687684,-0.0014642317584178,0.0316520074483927,0.0248432760786151,0.0054303122852745,-0.0103321611532936,-0.014780498844285,-0.0032631780263264,0.0013806314073867,-0.0085983100267992,-0.0008083932099009,0.0163574217701038,0.0118806848617865,-0.00202988501883,-0.0082177021038415,-0.0065333789013423,-0.0062503638294476,-0.0062797231448547,0.0058261252810009,0.0127944283094709,0.0102529134259176,-0.004820000804342,-0.0198095244493611,-0.0023102553054431,0.0230491453901624,0.0082030879721037,-0.0110981424759867,-0.0196298058884204,-0.0067521904040349,-0.001296501049842,0.0084159815397829,0.0252848132816017,0.0156275364897423,-0.0051907893825029,-0.0257948924646486,-0.0144802047063656,0.0083526302487774,0.001379374356197,7.309255608004189e-05,0.0094315065034647,-0.0012634859587139,-0.0229344119257657,0.0149990732553234,0.0133241096179424,0.0224751212802746,0.0152394632773601,-0.0152193005163175,-0.0588238704050717,-0.0573411822209782,0.0382714377904054,0.0567593363470779,0.0384072672303222,0.005803995056218,-0.0231927386096167,-0.0324121850997041,-0.0268145992712692,-0.0010231412365441,0.0156151237824834,0.0169872093160569,0.0036562808944359,0.0008827778639405,-0.0049747194950588,0.0047871753925093,0.0045169628698411,-0.0017523467316683,-0.0066312475211884,-0.0084416878491404,-0.0091533731500758,-0.0034089728470824,0.0141934329685939,0.010786425718608,0.0037398023097305,0.0030660703375527,-0.0029295982998753,-0.008004466331209,-0.0059374855471472,-0.0038587845302654,-0.0165312156776282,0.012417186838223,0.0196613022405157,0.0127933959641086,-0.0054987231868365,-0.0153602409616143,-0.005711402117068,-0.0007700143055056,0.0013166493936295,-0.0022837777727665,-0.0016702300540716,0.010008922372964,0.0120609343651061,0.0055264411121334,-0.0064972697067719,-0.015545177673171,-0.0224986558148316,0.0066497699591218,0.0169055164055385,0.01501087207458,0.0065650558772582,-0.0034667837357998,-0.0150831491522351,-0.0185599287620567,0.0019552770667042,0.0082095307784168,0.014886660159447,0.0102006613565472,-0.00188812872875,-0.0195705999281487,-0.0143997940805107,0.0110705002272008,0.0092664692330457,0.0078370449383766,-0.0046417550313478,-0.0120881290444921,0.0016723394904862,,,,
-0.0294752920251443,-0.0209100317040076,0.0037549435649376,0.0105333919047139,0.0050355263488727,-0.0002796952198444,-0.0059190409481784,0.0078707002655768,0.0135584360834688,0.008230429114907,-0.0005381619940216,-0.0074097742105382,-0.0122290162801301,-0.0151800668622371,-0.0153153644689367,-0.0040196116767532,0.0194139560342981,0.0287446934910178,0.0202947301333116,0.0049407824217406,-0.0141910588411831,-0.0243135248927413,-0.0245845109896978,-0.0087896116332038,0.0042022942786754,0.0167426001508713,0.0146936650083835,0.0152905503155938,0.0071054730365619,0.0001924723268977,-0.0080679740756619,-0.0187365555546015,-0.0163420062173857,-0.0072006958130932,-0.0004406840174343,0.0091366439114723,0.021623810887218,0.0122066779413899,0.004180244487908,0.0024201266647087,-0.0056615487051674,-0.0154880730052374,-0.0217851785106618,-0.0122419525905667,-0.0013498401212875,0.0141079880438749,0.0309759439478968,0.0184054215276611,0.0005393178134208,-0.0066334735297183,-0.0173280796869478,-0.0243571063164745,-0.0169419364326356,-0.0017132992479386,0.0171928311439306,0.0268482138815625,0.0239563072193999,0.0041211755296265,-0.0165251207757607,-0.0285641315862828,-0.0166835838808018,0.0051138406960799,0.0089495099440428,0.0032817383177943,0.0107909016899383,0.0157824118973206,0.0028244532233856,-0.0032337265816809,-0.0212806735808898,-0.0426873794992016,0.0221244630411484,0.0390904171777214,0.018284345604111,-0.0103603248060171,-0.025975750508635,-0.0282301475633495,-0.0043854237791563,0.0255018566623741,0.0238468998869066,0.0121069574600252,0.0006100731426605,-0.0012415376688637,-0.0168175129848419,-0.0457882310940955,-0.018344308274414,0.0247228757908676,0.0295197129060409,0.030873509461923,0.0155682075945298,-0.008053516037014,-0.0209487292360969,-0.0278808260190889,-0.0337119010871302,0.0068720503327753,0.0203154425544586,0.0179205871489645,0.0157733268133486,0.0085043983459916,0.0042073663475325,-0.0100112514378445,-0.0137722658792747,-0.0217816121010058,-0.0088711308744212,0.0025687060011914,0.007541935819619,0.01873003177709,0.0146532309750678,0.0070404927874527,-0.0028374931348615,-0.0138208485541711,-0.0265065338491231,-0.0117318414773335,0.0176720288750784,0.0174570328658427,0.0119774954557461,0.0007100445318979,-0.011532506831986,-0.0256346214550743,0.0039141883967669,0.030080966400417,-0.0012446580246943,-0.0263995754151492,-0.0140255653305673,0.028081686959579,0.0402598486752639,-2.4143895640449113e-05,-0.0562365846064108,-0.0334605675453586,0.0181890917210347,0.02694241736661,0.0279652874674936,0.0025519804391518,0.0046639859625136,-0.0295600172580903,-0.0329611459794207,-0.0023188747542475,0.0257500093213187,0.0202607820202239,0.0098606127686333,-0.0077043688146184,-0.022920022809729,-0.0074525955183403,0.0061612351168531,0.0149240285417726,0.0076299443128598,-0.009701840578036,-0.0042546505876941,0.0005995488415722,-0.0100369505651834,-0.0033110012254285,0.0084567650249993,0.0098040586318141,0.0097308138193875,0.0003388597262923,-0.0057229011072187,-0.010855169114827,-0.0141310538011246,-0.0008571161784129,0.0090151612077531,0.0074298120408979,0.0086046319578628,0.0031113569461082,-0.0056919814984296,-0.0091606493195905,0.0030741327281544,0.0035001889347901,-0.001189565675239,-0.0011177385682649,-0.0075080482037336,0.0056121723599584,-0.0099101761606929,0.0008761424772888,0.0110168282510504,0.0056356530045791,0.0040203404951272,0.0007387448356638,-0.0026111426852968,-0.0081460225621075,-0.009131868369028,0.0022112726899106,0.000566489749497,-0.0042428246437398,0.0044934036752238,-0.0022902344872005,0.0036626056198762,0.0150815992104162,0.0157186776086942,-0.0015434908184143,-0.0126914750350569,-0.0216746336127033,-0.0220505031534928,-0.0073794681230035,0.0210325658313581,0.0294653934112998,0.0122766239579397,-0.0047083327000139,-0.0091577491506605,-0.0036333741205841,-0.0064817802728109,0.0018435412059344,-0.0074541675277892,-0.0190585599853724,-0.0035313149349114,0.0163774804294557,0.0218098017302747,0.0167053605770678,0.0039387663428411,-0.0079062299986102,-0.0267907709894377,-0.0270026693699086,0.0009306614065383,0.0219517285614587,0.0146387690962013,0.000156074635316,-0.0039063344246654,0.0045479431873007,0.0059801757173703,0.0004099175141876,-0.0115379388127238,-0.0104280095637995,-0.0030471657168178,-0.0100951173571015,-0.0001283893843474,0.0187487621828792,0.021119723026379,0.0124198988757596,-0.0059642245061519,-0.0218496958655946,-0.017056109730972,-0.0089885710025482,0.0029113112234391,0.0119296114771167,0.0085949296429155,0.0089868690788427,0.0089704707400276,-0.0026170808253265,-0.0074084256869148,-0.0121823531625836,-0.0096709172999791,-8.109530024158287e-05,-0.000803202645495,0.0111516612493011,0.0124219129149752,0.010103630397895,-0.0068932876845149,-0.0113746468587682,-0.0088555950589109,-0.009066009305636,0.0074256412897206,0.0121334984938161,0.0061786502720835,-0.0007797363089477,-0.003901459372228,-0.0042950254228517,-0.0057836637839903,-0.0007273980338163,0.011815047440233,-0.0004085084940787,-0.0079710011165772,-0.0028212610374783,-0.0020072358435175,0.0042050726279314,0.0095576026999341,0.0156074516869441,-0.0068984284364826,-0.0208531962745101,-0.0095877855318187,0.0083754794512981,0.0041733809206632,-0.0041909747798889,0.0039059696236101,0.0043210154405176,0.0072746247414606,0.0163590831794747,0.0011738989259489,-0.0217776438948838,-0.0254478126107298,-0.0172231545109646,0.0188790681456888,0.0223319611270304,0.0127705789678662,0.0040836816033986,-0.0001386464475987,-0.0067809656144212,-0.0134400492780012,-0.0061366855908277,-0.0053646939266501,-0.0013238642148862,0.0035928417210292,-0.0013231738128925,0.0108723474247294,0.0182452639035346,0.0090283391210558,-0.007719299652717,-0.012930628219025,-0.0159144288669158,-0.0135366797371893,0.0017482238582544,0.0138828748877099,0.0133409676410673,0.0040322328767702,0.0028432435525581,0.0008627214214667,-0.0020477194697241,-0.0069415941484653,-0.0131989671210085,-0.0062922068514195,0.0022332289611804,0.0040419041452262,0.0076040462786267,0.0126422840202306,0.0082815274740744,-0.0041438083775237,-0.0107248373940369,-0.0099248936119191,-0.0093959964210935,-0.0053920222326015,0.0090441348884258,0.0135455369418028,0.0135994107524872,0.0063405577707345,-0.0064536357450399,-0.0182511308224032,-0.0090358631953062,-0.0082657367083508,0.0048454079485742,0.0121291952482543,0.005353376043825,0.0073245764277593,0.0101928997352494,-0.0003842709035163,-0.0131102253764125,-0.0164025502833237,-0.0128077001749718,-0.0011062314005259,0.0105531012716841,0.0149045423761834,0.0144685060242341,0.0071034460697244,-0.0028171616738709,-0.0052938249271317,-0.0162866941276994,-0.0183644487387048,-0.0144033220744237,0.0100304045974198,0.0161126453038069,0.0196416030609196,0.0122788230259025,0.0008558888486341,-0.0031972375442195,-0.0122066689097649,-0.0174393780808664,-0.0174544123044729,-0.0009964341700055,0.0026842693262571,0.012546214677068,0.0180983662322026,0.0150904580712098,0.0097126069199432,0.0014138220339361,-0.0167525889380152,-0.0318823673797255,-0.0229223070694648,0.0010757988779485,0.0188068107154995,0.0196095274403559,0.0176180185783374,0.0063463922885939,-0.0014438282532771,-0.0065960951665231,-0.016426401093366,-0.0141761861108622,-0.0101414011421685,0.0042105953016382,0.0108245526919451,0.0093436221903297,0.0086371620878463,0.0065018756095455,-0.0012092017707494,-0.0080093038160994,-0.0072597018241571,-0.008972158102141,3.7467912512911625e-06,0.002164993337619,0.0033645209533614,0.0071093727680678,0.0038871580087632,-0.0007296654789884,-0.0070659511532115,-0.0022367667535461,0.0002692673651138,0.0008301932071266,0.0063625431894531,0.0055440347977215,-0.0042820354792801,-0.0117226382499478,-0.0088543298568635,0.0075474206713085,0.0100340623225459,0.0046647544407484,-0.0025412365122231,-0.001222101023295,-0.0032007808073541,-0.0005292389736915,-0.000192977331195,-0.0007447777112695,0.0028537281905255,-0.0003801572859704,-0.0085891592765604,-0.0040750571910804,0.006227993750342,0.0097261509127875,0.0145295329382082,0.0009157558870002,-0.0140254733255231,-0.0285630662415035,-0.013211662185626,0.0335138441998577,0.0164668944309793,0.0065718064587019,-0.0031805067065489,-0.0159977869463225,-0.0182733534617198,0.0003053580779318,0.0054521162541844,0.0102779599993186,0.0101797888606258,0.0017693425406252,0.0015471531897018,-0.0085777533017134,-0.0039690943705796,-0.0075347160536749,-0.0219517255245826,0.0160279948290375,0.0270383521586162,0.012253421853402,-0.00890448044641,-0.0201508752030025,-0.0214858468775671,-0.0026487956715852,0.019727616374648,0.0274883395523982,0.0207362947111371,-0.0089133224478241,-0.0490124282250837,-0.0401257298410685,0.0273574411558884,0.0353074379285724,0.0162666569783253,-0.00137340525741,0.0004642078273654,-0.0031722679406938,-0.026348345045853,-0.0218664843657766,0.0144707936215652,0.0108347300971231,0.010597329629746,-0.001193175801603,-0.0098877438931938,0.0148442695551506,0.012617269025147,0.0014986461762611,-0.01899772132683,-0.0332705756879211,-0.0056608401386619,0.0233667234585683,-0.0023082248596329,0.0278627069874307,0.022825065969828,-0.001578451623629,-0.0195000085506913,-0.0336244792729708,-0.0186431138026016,0.0035715776690882,0.0204527757240512,0.0154882131342072,0.0201865562378644,0.007206399617995,-0.0127984075950407,-0.0285619119407642,-0.0053770244900604,0.0128921975066594,0.0148247960393514,-0.0070619651083383,-0.030464731456977,-0.0068488715244812,0.0159285626500461,0.039008623729876,0.0243468065376117,-0.0017566695526541,-0.0285771836882798,-0.0428242605468742,-0.0156220141975589,-4.289585978432842e-05,-0.013633028337791,0.0541974080356159,0.0669432687195111,0.0426667102109022,-0.0295599594815229,-0.1271060623019707,-0.0938430961536092,0.0513005538119983,0.1011466422500494,0.0638256574740898,0.0097773403843289,-0.0308463198904693,-0.0489125701345673,-0.0554349601242858,-0.0324091590717156,0.0383269676682464,0.057080972116939,0.0419842300898447,0.0023796757731619,-0.031264741857636,-0.0368434451418918,-0.0179177805469618,,,,
0.0157571571469694,0.0016190795471333,0.00536770454022,0.0051667626725388,-0.0126666087389766,-0.019607789824849,-0.0065811210839266,-0.0017139106442552,-0.0009403492133234,0.0115840275468798,0.0207649288096308,0.008526846119041,0.0024218499743468,-0.0027475110900313,-0.0168204753688264,-0.011402904624999,-0.0104654251192978,-0.0127401502558057,0.0044836914767923,0.0227451458418469,0.0246491316619882,0.0106297871953657,-0.0065258155095915,-0.0134331649289121,-0.0142701300106519,-0.0185391122581062,0.0022585239940453,0.0027839499412798,0.0085345137753002,0.0096105185406348,0.0026405059470831,0.0100045294463776,0.0081763935154985,-0.0043148594378149,-0.0144293049467369,-0.0190948205870853,-0.0153369049187511,0.0084917424966436,0.0156205228977337,0.0198999587824151,0.0141106038393743,-0.0071056659318255,-0.0155600127730502,-0.0228458805357982,-0.003253955825029,0.012696385926672,0.0136207463458005,0.0083986591716172,-0.0001970106942848,-0.0124791510295688,-0.0153859702163629,0.0012000266870773,0.0123520783646004,0.0104432572958288,0.0033888720904312,-0.0070629571040087,-0.0104058955176049,-0.0097743187935803,0.00701546578715,0.0091011797424293,0.0111921507939244,-7.298472470599627e-05,-0.0069787475129446,-0.0230496873082178,-0.0030667155464322,0.0123863181429863,0.0148964429094482,0.0111378664024861,0.0024131074211885,-0.0122822950335286,-0.0239534993505764,-0.0019521528151786,0.0037526285919525,0.0132288004858107,0.0106892578441829,0.0006386761473427,-0.007654213955784,-0.0070790842225995,0.0007514354053011,0.0117179052337982,0.0029587941666658,-0.0166620793761412,-0.0072421481438198,-0.0044060773331842,0.0120986508759928,0.010907562995792,0.0065148879835074,-0.0035726593765257,0.0003974486193238,-0.0028562442050058,-0.0021053664749984,-0.0168148873357918,-0.0190214044425912,0.0079488051027351,0.0289263840131212,0.0158595623505574,-0.0022464372220934,-0.007148619400902,0.0032633582669875,-0.0034030349214271,-0.0167094252655698,-0.0370491090784742,-0.0031138124000764,0.0298306364579896,0.0321763682176002,0.0185449768858951,-0.0191127577675487,0.0171854459570147,-0.0012850179523813,-0.0387693026781102,-0.0270375026682953,-0.0193557553983483,-0.0107463941377339,0.0422106859321777,0.0527604149055178,0.0571159062200631,0.0020095705312154,-0.0923447175246516,-0.046147455624272,-0.0082302973227688,0.0172555881441071,0.0279472602194746,0.0124045011558935,-0.008510747052403,0.0172193647452434,0.0491337127059149,0.0343040492340519,-0.0448638768277162,-0.1500447656722255,-0.031679580491384,0.0893750169771639,0.0885821931677815,0.0297744893926242,-0.0244313028889342,-0.0573608245384824,-0.0046252205799538,0.0062902642410723,0.0096117073373149,-0.0150186770084689,-0.0187305799337924,0.0024687590070717,0.024681539602956,0.0308800825433136,0.0013529349344488,-0.0301060698597099,-0.0044677238013703,0.0154558444745524,0.0033549695408961,-0.0147327694019677,-0.0280227342206462,-0.0041380769630808,0.0177823693313496,0.0234290018885624,0.0136569276734976,-0.0010027824494346,-0.0022957078996503,-0.0042936081039009,-0.0246895178642464,-0.0039156524761423,0.0030408063160613,-0.0096391111001929,-0.0018579543268553,0.0215818355813677,0.0211820261782098,0.0058457535618809,-0.0094514764702878,-0.0022321792093011,-0.0096753584837403,-0.0227647159011232,-0.0057703589213333,-0.0007998712658038,0.0070819816293181,0.0165991066406473,0.022928204636609,0.0175750212435491,-0.0052064799306044,-0.033976132754095,-0.0272213237628351,0.0001723062111503,0.006447346989572,0.0026092098145628,0.0189049532088122,0.0188396709130006,0.0110973063694122,-0.0011819476882528,-0.0255734712188287,-0.0287766303648237,-0.0005520326530614,0.0091440982940272,0.0098885886395944,0.0026804079649123,0.0169046178373657,0.0059901783334308,-0.0087757769080427,-0.0015498735013394,-0.0105775746864715,-0.0083036255615318,0.0013549195901638,-0.0067998486014337,-0.0009434484648928,0.0177189683022252,0.0108403846831792,-0.0073654277737959,0.0076726720223831,-0.00407574315049,-0.0016058065310112,-0.0052691144597615,-0.0029381587635315,-0.0207999273060149,-0.0076596094795899,0.0165098069191579,0.0179388385448954,0.0200403482430608,0.0033708700120025,-0.0104712943042407,-0.0184631445072614,-0.0161737736695964,-0.0080872533790629,0.0140761540937176,0.0071899646841193,0.0130553098230533,-0.0022786700961744,-0.0066899924559441,0.0057912889149403,-0.000341473659446,-0.0080920441742164,-0.0062310969258248,0.0083873748435844,0.0143612721864069,-0.0057864288847032,-0.0259448753936102,-0.0106312782812101,0.0157564228781419,0.0310357890458429,0.007593662505113,-0.0112540807993388,-0.0184142814234136,-0.0018871001994008,-0.0135423907884463,0.0014420720639789,0.0121100598665686,0.0185064647096083,0.0058438016149964,-0.0079759878881778,-0.021996612387742,-0.0008603019739456,0.0118256138957351,0.0069863636620206,-0.006757423362717,-0.0150710104352081,0.0054203953345328,0.0143084638554092,0.0113066846066787,-0.0009959973235956,-0.010700660349462,-0.0144584256800483,-0.0120548348707779,0.0170314282478755,0.0068677910388252,-0.0044947304441318,0.0046968887765089,0.0026793904032085,0.0110857356465693,0.0038766426478168,-0.0225684984928278,-0.0145672758382584,-0.0099031477447371,0.0116551674664397,0.0099846141131282,0.0197557386718271,0.0320363062516132,-0.0094241971197636,-0.0608954943659959,-0.0256387756433739,0.0171135195927956,0.0452515839772288,0.0259880015243617,-0.0115470170944663,-0.0404246338477739,-0.0151907261160432,0.0080066231623085,0.0327119655717849,0.020775186478898,-0.0194958653517346,-0.0317576402859495,-0.0092377120282425,0.0275377760415353,0.0059151370652099,0.0087830682424464,-0.0081148215950119,-0.0190252591554075,0.0004487531800494,0.0122312144239406,0.0097100814131575,0.0082391361684664,-0.0102686976178218,-0.0144211764368297,-0.0262997199918249,0.0140967582492201,0.0290181149856623,0.0046241812248683,-0.0034653967574643,-0.0049226664786669,0.0086019759273801,-0.008393112630385,-0.0233470272219832,-0.0194317935158268,-0.0001042821219747,0.045432319455268,0.0333138959283713,0.0050096248125357,-0.0356167033970279,-0.0644623397697556,0.0197480740720318,0.0381817710032991,0.0035951964576673,0.0029728738053491,0.0065594015207533,-0.0102329249785461,-0.0321788294415362,-0.0098131417843594,0.0293504623134304,0.0234348468433361,0.011641870617256,-0.0012038946411848,-0.0302140496607758,-0.0365712780481346,-0.000200981010575,0.0226024954889093,0.0206196665486233,0.0165427076498186,0.007708666602369,-0.0112901991895094,-0.019532207931608,-0.0079839821448098,-0.0065729374595339,-0.0059639536168683,0.0008481803406614,0.0145119294633862,0.0175618463869637,0.0096711727976752,-0.0001711665998051,-0.0071757058482933,-0.0106110548829242,-0.0133844966027027,-0.0159496983201366,0.004135135830948,0.0155559449366472,0.0103543758859424,0.0033080153937114,0.0046745224862193,0.0027006393370211,-0.000402747301504,-0.0095288375445865,-0.0097242143707062,-0.0141723590942739,-0.0067440968680799,0.0106291220556299,0.0161363361107927,0.0168399969601513,0.0081461738043468,-0.0049745368112618,-0.0163197859238851,-0.0261671664703069,-0.0066028517914473,0.0134696679944967,0.0164435990509205,0.0118656952406984,0.0032497185266938,-0.0031685719555226,-0.0108483897325967,-0.0105153738738214,-0.0060265180057773,-0.001721147266867,0.0022658329542992,0.0118058975784484,0.0155782915635879,0.0092423987310913,-0.0065181855902967,-0.0118774999218528,-0.0104561886449315,-0.0140584225983769,-0.0081455574315493,0.0072443145692619,0.0158066412659975,0.0188505017564328,0.0123604827434533,0.0022518037533136,-0.0080371381578158,-0.0164594193641934,-0.0269716794768329,-0.0159728975353216,0.0037288476543634,0.0169843821862509,0.0239311800960041,0.0200884780621325,0.0146345809401476,0.0002851148215758,-0.027386149945136,-0.0295167378859527,-0.0204352922364616,-0.0044458989218135,0.0009774839456339,0.0131863869030834,0.0396363869631718,0.0554245107228435,0.0149727624770247,-0.043212995747325,-0.0690105820718731,-0.0505583372395067,-0.0130759332511412,0.0576136534980093,0.0618925979358132,0.0609329075671787,-0.0089027148460474,-0.0543408341155631,-0.0663271440226282,-0.0486472530665526,0.0320746738313587,0.068491954531036,0.0434020130523221,0.0203446769556823,-0.0348323052484149,-0.1090097045701228,-0.0198897285612747,0.0834882641701632,0.0611816013575597,0.0015051114585732,-0.0511772677627558,-0.030882334128468,-0.0258670409427597,0.0288408082637394,0.0594693086643696,0.014459352462755,-0.0526251642148949,-0.0419058214960481,0.0192681243656381,0.0268769795514103,0.0241510048048426,-0.0092919798243096,-0.0191464682884465,-0.0208430486377313,0.0042653443821704,0.0245243131545675,0.0055700702458324,0.0056790571101291,-0.0023266500845214,-0.0309681958168419,-0.0325335538970232,0.0215149992654599,0.047356997017267,0.0264172962860204,-0.0253596053290409,-0.0229690442207075,-0.0059139275736774,-0.0071016481685695,-0.0168241328424819,-0.0031148225825362,0.0206738678181508,0.0412739623863874,0.0208902207602324,-0.0064307763692293,-0.0373255200106916,-0.0402369767659813,0.0033625758932732,0.0014104666190861,0.0059507581206175,0.0227944182127134,0.0329892077554843,0.0137628842415198,-0.0285418851262703,-0.0114698466683704,-0.0039170317426586,-0.0152909972811295,-0.0165902960339161,-0.0112127984997384,0.0060285130113119,0.0380022286046568,0.0437427609056628,0.0145564152519924,-0.0155940115983719,-0.042731694710074,-0.0441127256791321,-0.0084014181936794,0.0165932653685723,0.0218276960250355,0.018590834388994,0.0075790104954163,0.0096643408793042,0.0086343349441682,-0.0082274012117625,-0.0186468937064974,-0.0145883866843231,-0.0219403836650565,-0.0143296723198389,0.0200697039009214,0.0189372061245197,0.0202661446991786,0.0232740956453748,0.0079983990330508,-0.0142377503498607,-0.0492585203790563,-0.0135673524356239,-0.0012738315233489,0.0071284832485924,0.0121970752789362,0.0250720983755958,0.0193710083234688,-0.0045555772430453,-0.0003799605949406,-0.0199966839361192,-0.0377980473110792,-0.0124192634039707,0.0220365200006389,0.0331660715123353,0.0166904152613505,0.003101673960589,,,
